"V1","V2","V3","V4","V5","V6","V7","V8","V9","V10","V11","V12","V13","V14","V15","V16","V17","V18","V19","V20","V21","V22","V23","V24","V25","V26","V27","V28","V29","V30","V31","V32","V33","V34","V35","V36","V37","V38","V39","V40","V41","V42","V43","V44","V45","V46","V47","V48","V49","V50","V51","V52","V53","V54","V55","V56","V57","V58","V59","V60","V61","V62","V63","V64","V65","V66","V67","V68","V69","V70","V71","V72","V73","V74","V75","V76","V77","V78","V79","V80","V81","V82","V83","V84","V85","V86","V87","V88","V89","V90","V91","V92","V93","V94","V95","V96","V97","V98","V99","V100"
78.95813,-54.486084,11.303711,72.149658,-36.221313,-41.177368,-44.998169,-8.981323,18.429565,66.165161,42.282104,4.63562,11.972046,35.952759,-43.463135,53.659058,-51.959229,9.988403,-67.669678,-64.865112,12.136841,19.937134,39.758301,49.899292,26.135254,17.901611,-63.555908,-45.092773,53.729248,-41.491699,-31.463623,34.259033,-8.551025,-33.050537,-53.799438,-41.424561,-12.054443,17.626953,-21.899414,19.091797,48.480225,10.571289,-52.554321,-29.107666,-39.013672,-11.868286,0.65918,27.349854,-9.130859,-62.802124,-22.821045,-68.478394,-61.651611,12.176514,41.818237,21.463013,41.33606,13.876343,0.054932,-0.775146,-33.282471,-1.220703,58.48999,31.335449,-33.349609,66.134644,-51.99585,34.848022,43.1427,-48.672485,49.719238,-47.180176,-31.494141,-18.002319,11.77063,20.623779,17.245483,-63.415527,-4.675293,-8.905029,-40.097046,-30.862427,-4.034424,37.738037,24.371338,-57.556152,32.080078,51.495361,-30.435181,-40.963745,-13.140869,38.458252,-46.612549,26.135254,-16.699219,27.252197,-49.151611,-32.525635,15.570068,-29.034424
78.95813,-54.486084,9.591675,72.149658,-36.221313,-44.271851,-48.324585,18.972778,16.107178,61.328125,42.282104,1.675415,9.552002,35.952759,-43.463135,53.659058,-51.959229,9.988403,-67.669678,-64.865112,12.136841,19.937134,39.758301,49.899292,26.135254,17.901611,-67.562866,-45.092773,53.729248,-41.491699,-31.463623,34.259033,-8.551025,-33.050537,-53.799438,-43.701172,-12.054443,17.626953,-24.435425,33.605957,48.480225,10.571289,-52.554321,-31.298828,-41.455078,-11.868286,0.65918,27.349854,-9.130859,-58.132935,-26.16272,-63.043213,-61.270142,11.325073,45.635986,21.463013,37.762451,12.11853,0.054932,-4.02832,-33.282471,-1.220703,55.752563,31.335449,-33.349609,66.134644,-51.99585,34.848022,40.792847,-52.426147,49.719238,-47.180176,-16.116333,-18.002319,11.77063,20.623779,17.245483,-63.415527,-4.675293,-8.905029,-40.097046,-30.862427,-4.034424,37.738037,24.371338,-57.556152,32.080078,53.128052,-9.9823,-43.319702,-13.140869,38.458252,-46.612549,26.022339,-18.82019,25.543213,-49.151611,-32.525635,14.102173,-32.095337
78.95813,-54.486084,9.591675,68.301392,-36.221313,-44.271851,-48.324585,18.972778,16.107178,61.328125,42.282104,1.675415,9.552002,30.654907,-47.567749,49.432373,-53.497314,7.434082,-70.953369,-70.193481,28.302002,19.937134,39.758301,49.899292,26.135254,16.8396,-67.562866,-48.855591,52.929688,-45.43457,-31.463623,34.259033,-8.551025,-33.050537,-53.799438,-43.701172,-12.054443,17.626953,-24.435425,33.605957,48.480225,10.571289,-39.492798,-31.298828,-41.455078,-14.904785,-1.904297,27.39563,-11.340332,-58.132935,-26.16272,-63.043213,-61.270142,11.325073,45.635986,21.463013,37.762451,12.11853,-3.302002,-4.02832,-33.282471,-3.665161,55.752563,31.335449,-37.167358,67.807007,-51.99585,37.255859,40.792847,-52.426147,49.597168,-47.320557,-16.116333,-18.002319,11.923218,18.969727,17.041016,-64.761353,-4.675293,-8.905029,-40.097046,-30.862427,-7.293701,38.171387,24.371338,-57.556152,32.034302,53.128052,-9.9823,-43.319702,-16.159058,33.612061,-49.304199,26.022339,-18.82019,25.543213,-52.920532,-35.678101,14.102173,-32.095337
76.312256,-33.364868,9.591675,68.301392,-37.539673,-44.271851,-48.324585,18.972778,16.107178,61.328125,42.282104,1.675415,9.552002,30.654907,-47.567749,49.432373,-53.497314,7.434082,-70.953369,-70.193481,28.302002,19.937134,39.758301,58.358765,20.605469,16.8396,-67.562866,-48.855591,52.929688,-45.43457,-10.232544,34.240723,-11.99646,-36.080933,-54.916382,-43.701172,-12.054443,15.313721,-24.435425,33.605957,48.480225,24.990845,-39.492798,-31.298828,-41.455078,-14.904785,-1.904297,27.39563,-11.340332,-58.132935,-26.16272,-63.043213,-61.270142,11.325073,45.635986,20.779419,37.762451,12.11853,-3.302002,-4.02832,-33.282471,-3.665161,55.752563,31.335449,-37.167358,67.807007,-34.744263,37.255859,40.792847,-52.426147,49.597168,-47.320557,-16.116333,-5.380249,11.923218,18.969727,17.041016,-64.761353,-5.413818,-12.063599,-23.876953,-33.459473,-7.293701,38.171387,24.371338,-62.255859,32.034302,53.128052,-9.9823,-43.319702,-16.159058,33.612061,-49.304199,26.022339,-18.82019,25.543213,-52.920532,-35.678101,14.102173,-32.095337
76.312256,-33.364868,9.051514,68.301392,-37.539673,-48.086548,-51.550293,43.35022,13.616943,55.46875,37.155151,-1.849365,7.244873,30.654907,-47.567749,49.432373,-53.497314,7.434082,-70.953369,-70.193481,28.302002,15.22522,36.541748,58.358765,20.605469,16.8396,-70.370483,-48.855591,52.929688,-45.43457,-10.232544,34.240723,-11.99646,-36.080933,-54.916382,-46.09375,-14.630127,15.313721,-26.809692,43.490601,45.373535,24.990845,-39.492798,-33.532715,-44.494629,-14.904785,-1.904297,27.39563,-11.340332,-58.132935,-29.360962,-50.750732,-55.209351,10.05249,46.405029,20.779419,34.155273,9.921265,-3.302002,-4.02832,-35.888672,-3.665161,52.532959,31.152344,-37.167358,67.807007,-34.744263,37.255859,38.009644,-55.706787,49.597168,-47.320557,-16.116333,-5.380249,11.923218,18.969727,17.041016,-64.761353,-5.413818,-12.063599,-23.876953,-33.459473,-7.293701,38.171387,23.480225,-62.255859,32.034302,53.128052,-9.9823,-45.095825,-16.159058,33.612061,-49.304199,25.866699,-20.883179,22.958374,-52.920532,-35.678101,12.426758,-34.805298
76.312256,-33.364868,9.051514,64.376831,-37.539673,-48.086548,-51.550293,43.35022,13.616943,55.46875,37.155151,-1.849365,7.244873,30.654907,-51.394653,44.137573,-56.646729,4.486084,-68.151855,-72.683716,28.302002,15.22522,36.541748,58.358765,20.605469,15.692139,-70.370483,-51.980591,52.929688,-48.925781,-10.232544,34.240723,-11.99646,-36.080933,-54.916382,-46.09375,-14.630127,15.313721,-26.809692,43.490601,45.373535,24.990845,-22.140503,-33.532715,-44.494629,-17.797852,-4.61731,26.78833,-13.885498,-47.485352,-29.360962,-50.750732,-55.209351,10.05249,46.405029,20.779419,34.155273,9.921265,-6.561279,-7.397461,-35.888672,-6.121826,52.532959,31.152344,-41.143799,67.834473,-34.744263,39.450073,38.009644,-55.706787,49.032593,-43.148804,-2.386475,-5.380249,11.44104,17.144775,16.500854,-61.529541,-5.413818,-12.063599,-23.876953,-33.459473,-7.293701,38.171387,23.480225,-62.255859,31.533813,54.150391,11.132813,-45.095825,-19.158936,29.031372,-51.763916,25.866699,-20.883179,22.958374,-56.552124,-39.18457,12.426758,-34.805298
72.698975,-6.985474,9.051514,64.376831,-37.539673,-48.086548,-51.550293,43.35022,13.616943,55.46875,37.155151,-1.849365,7.244873,25.674438,-51.394653,44.137573,-56.646729,4.486084,-68.151855,-72.683716,39.050293,15.22522,36.541748,58.358765,15.438843,15.692139,-70.370483,-51.980591,51.422119,-48.925781,10.620117,33.139038,-15.658569,-39.474487,-51.083374,-46.09375,-14.630127,12.988281,-26.809692,43.490601,45.373535,24.990845,-22.140503,-33.532715,-44.494629,-17.797852,-4.61731,26.78833,-13.885498,-47.485352,-29.360962,-50.750732,-55.209351,10.05249,46.405029,19.342041,34.155273,9.921265,-6.561279,-7.397461,-35.888672,-6.121826,52.532959,31.152344,-41.143799,67.834473,-14.859009,39.450073,38.009644,-55.706787,49.032593,-43.148804,-2.386475,6.402588,11.44104,17.144775,16.500854,-61.529541,-6.289673,-15.002441,-5.810547,-36.11145,-10.391235,38.894653,23.480225,-62.255859,31.533813,54.150391,11.132813,-45.095825,-19.158936,29.031372,-51.763916,25.866699,-20.883179,22.958374,-56.552124,-39.18457,12.426758,-34.805298
72.698975,-6.985474,9.411621,64.376831,-38.891602,-48.086548,-54.208374,60.891724,10.723877,49.285889,32.571411,-1.849365,4.974365,25.674438,-51.394653,44.137573,-56.646729,4.486084,-68.151855,-72.683716,39.050293,10.696411,33.178711,61.709595,15.438843,15.692139,-69.857788,-51.980591,51.422119,-48.925781,10.620117,33.139038,-15.658569,-39.474487,-51.083374,-49.401855,-17.202759,12.988281,-28.723145,49.380493,41.726685,34.945679,-22.140503,-35.943604,-48.242188,-17.797852,-4.61731,26.78833,-13.885498,-47.485352,-29.360962,-50.750732,-42.614746,8.377075,45.81604,19.342041,30.62439,7.345581,-6.561279,-7.397461,-36.419678,-6.121826,48.797607,30.493164,-41.143799,67.834473,-14.859009,39.450073,35.021973,-58.743286,49.032593,-43.148804,-2.386475,6.402588,11.44104,17.144775,16.500854,-61.529541,-6.289673,-15.002441,-5.810547,-36.11145,-10.391235,38.894653,22.122192,-66.131592,31.533813,54.150391,11.132813,-45.095825,-19.158936,29.031372,-51.763916,25.866699,-23.226929,19.589233,-56.552124,-39.18457,10.580444,-37.380981
72.698975,-6.985474,9.411621,60.412598,-38.891602,-52.322388,-54.208374,60.891724,10.723877,49.285889,32.571411,-5.618286,4.974365,25.674438,-51.394653,44.137573,-61.032104,1.483154,-56.622314,-68.417358,39.050293,10.696411,33.178711,61.709595,15.438843,14.291382,-69.857788,-54.458618,51.422119,-51.779175,10.620117,33.139038,-15.658569,-39.474487,-51.083374,-49.401855,-17.202759,12.988281,-28.723145,49.380493,41.726685,34.945679,-22.140503,-35.943604,-48.242188,-17.797852,-7.427979,25.549316,-16.638184,-31.530762,-32.662964,-32.333374,-42.614746,8.377075,45.81604,19.342041,30.62439,7.345581,-9.753418,-10.873413,-36.419678,-8.544922,48.797607,30.493164,-41.143799,66.439819,-14.859009,39.450073,35.021973,-58.743286,48.065186,-34.228516,8.053589,6.402588,11.44104,17.144775,15.484619,-52.44751,-6.289673,-15.002441,-5.810547,-36.11145,-10.391235,38.894653,22.122192,-66.131592,30.718994,54.489136,29.632568,-46.749878,-21.966553,25.024414,-54.681396,25.262451,-23.226929,19.589233,-59.701538,-42.825317,10.580444,-37.380981
67.971802,20.474243,9.411621,60.412598,-38.891602,-52.322388,-54.208374,60.891724,10.723877,49.285889,32.571411,-5.618286,4.974365,21.585083,-54.260254,37.902832,-61.032104,1.483154,-56.622314,-68.417358,44.628906,10.696411,33.178711,61.709595,11.065674,14.291382,-69.857788,-54.458618,49.200439,-51.779175,10.620117,31.253052,-19.293213,-43.252563,-41.247559,-49.401855,-17.202759,12.988281,-28.723145,49.380493,41.726685,34.945679,-2.944946,-35.943604,-48.242188,-20.794678,-7.427979,25.549316,-16.638184,-31.530762,-32.662964,-32.333374,-42.614746,8.377075,45.81604,17.391968,30.62439,7.345581,-9.753418,-10.873413,-36.419678,-8.544922,48.797607,30.493164,-44.677734,66.439819,4.574585,41.412354,35.021973,-58.743286,48.065186,-34.228516,8.053589,15.481567,10.220337,15.203857,15.484619,-52.44751,-7.345581,-17.959595,11.340332,-39.175415,-13.482666,39.39209,22.122192,-66.131592,30.718994,54.489136,29.632568,-46.749878,-21.966553,25.024414,-54.681396,25.262451,-23.226929,19.589233,-59.701538,-42.825317,10.580444,-37.380981
67.971802,20.474243,10.153198,60.412598,-40.57312,-52.322388,-54.208374,60.891724,7.513428,43.408203,28.567505,-5.618286,4.974365,21.585083,-54.260254,37.902832,-61.032104,1.483154,-56.622314,-68.417358,44.628906,6.903076,29.876709,61.953735,11.065674,14.291382,-63.821411,-54.458618,49.200439,-51.779175,27.853394,31.253052,-19.293213,-43.252563,-41.247559,-53.97644,-19.598389,10.739136,-28.723145,52.468872,37.796021,40.563965,-2.944946,-35.943604,-48.242188,-20.794678,-7.427979,25.549316,-16.638184,-31.530762,-32.662964,-32.333374,-42.614746,6.317139,44.842529,17.391968,30.62439,4.391479,-9.753418,-10.873413,-33.410645,-8.544922,48.797607,29.40979,-44.677734,66.439819,4.574585,41.412354,35.021973,-61.901855,48.065186,-34.228516,8.053589,15.481567,10.220337,15.203857,15.484619,-52.44751,-7.345581,-17.959595,11.340332,-39.175415,-13.482666,39.39209,20.571899,-66.833496,30.718994,54.489136,29.632568,-46.749878,-21.966553,25.024414,-54.681396,25.262451,-27.865601,15.606689,-59.701538,-42.825317,8.572388,-40.066528
67.971802,20.474243,10.153198,55.941772,-40.57312,-56.216431,-56.185913,70.819092,7.513428,43.408203,28.567505,-9.240723,2.462769,21.585083,-54.260254,37.902832,-61.032104,-1.480103,-36.175537,-54.879761,44.628906,6.903076,29.876709,61.953735,11.065674,14.291382,-63.821411,-56.884766,49.200439,-51.779175,27.853394,31.253052,-19.293213,-43.252563,-41.247559,-53.97644,-19.598389,10.739136,-30.239868,52.468872,37.796021,40.563965,-2.944946,-38.479614,-51.992798,-20.794678,-7.427979,23.953247,-19.458008,-12.313843,-36.2854,-10.244751,-24.508667,6.317139,44.842529,17.391968,27.532959,4.391479,-12.835693,-14.407349,-33.410645,-11.056519,44.631958,29.40979,-44.677734,63.818359,4.574585,41.412354,32.003784,-61.901855,48.065186,-21.44165,14.831543,15.481567,10.220337,15.203857,15.484619,-37.939453,-7.345581,-17.959595,11.340332,-39.175415,-13.482666,39.39209,20.571899,-66.833496,29.653931,54.034424,43.341064,-49.273682,-21.966553,25.024414,-58.731079,24.038696,-27.865601,15.606689,-59.701538,-46.038818,8.572388,-40.066528
67.971802,44.7052,10.153198,55.941772,-40.57312,-56.216431,-56.185913,70.819092,7.513428,43.408203,28.567505,-9.240723,2.462769,18.82019,-55.996704,31.12793,-64.474487,-1.480103,-36.175537,-54.879761,46.392822,6.903076,29.876709,61.953735,7.830811,12.573242,-63.821411,-56.884766,46.322632,-54.385376,27.853394,31.253052,-19.293213,-47.143555,-26.174927,-53.97644,-19.598389,10.739136,-30.239868,52.468872,37.796021,40.563965,15.307617,-38.479614,-51.992798,-24.194336,-10.253906,23.953247,-19.458008,-12.313843,-36.2854,-10.244751,-24.508667,6.317139,44.842529,15.060425,27.532959,4.391479,-12.835693,-14.407349,-33.410645,-11.056519,44.631958,29.40979,-47.698975,63.818359,4.574585,43.017578,32.003784,-61.901855,46.77124,-21.44165,14.831543,21.038818,8.422852,13.043213,14.068604,-37.939453,-7.345581,-21.14563,25.384521,-42.63916,-16.821289,39.083862,20.571899,-66.833496,29.653931,54.034424,43.341064,-49.273682,-24.765015,21.99707,-58.731079,24.038696,-27.865601,15.606689,-62.127686,-46.038818,8.572388,-40.066528
62.252808,44.7052,10.153198,55.941772,-42.749023,-56.216431,-56.185913,70.819092,7.513428,38.220215,25.021362,-9.240723,2.462769,18.82019,-55.996704,31.12793,-64.474487,-1.480103,-36.175537,-54.879761,46.392822,3.985596,27.069092,60.806274,7.830811,12.573242,-51.184082,-56.884766,46.322632,-54.385376,39.68811,29.000854,-22.647095,-47.143555,-26.174927,-58.969116,-21.878052,8.468628,-30.239868,52.468872,33.868408,43.136597,15.307617,-38.479614,-51.992798,-24.194336,-10.253906,23.953247,-19.458008,-12.313843,-36.2854,-10.244751,-24.508667,6.317139,43.75,15.060425,27.532959,4.391479,-12.835693,-14.407349,-26.107788,-11.056519,44.631958,27.935791,-47.698975,63.818359,21.072388,43.017578,32.003784,-61.901855,46.77124,-21.44165,14.831543,21.038818,8.422852,13.043213,14.068604,-37.939453,-8.554077,-21.14563,25.384521,-42.63916,-16.821289,39.083862,19.012451,-61.752319,29.653931,54.034424,43.341064,-49.273682,-24.765015,21.99707,-58.731079,24.038696,-27.865601,15.606689,-62.127686,-46.038818,8.572388,-40.066528
62.252808,44.7052,10.736084,55.941772,-42.749023,-59.088135,-57.965088,74.661255,4.223633,38.220215,25.021362,-12.454224,-0.55542,18.82019,-55.996704,31.12793,-64.474487,-1.480103,-36.175537,-32.266235,46.392822,3.985596,27.069092,60.806274,7.830811,12.573242,-51.184082,-56.884766,46.322632,-54.385376,39.68811,29.000854,-22.647095,-47.143555,-26.174927,-58.969116,-21.878052,8.468628,-31.732178,53.90625,33.868408,43.136597,15.307617,-40.802002,-54.364014,-24.194336,-10.253906,23.953247,-21.871948,7.266235,-40.127563,12.097168,-3.512573,3.863525,43.75,15.060425,25.079346,1.266479,-16.021729,-17.834473,-26.107788,-13.638306,40.255737,27.935791,-47.698975,63.818359,21.072388,43.017578,29.226685,-65.432739,46.77124,-6.814575,18.783569,21.038818,8.422852,13.043213,14.068604,-37.939453,-8.554077,-21.14563,25.384521,-42.63916,-16.821289,39.083862,19.012451,-61.752319,28.579712,52.670288,51.934814,-53.033447,-24.765015,21.99707,-58.731079,22.442627,-31.124878,11.325073,-62.127686,-46.038818,6.454468,-43.054199
62.252808,44.7052,10.736084,50.662231,-42.749023,-59.088135,-57.965088,74.661255,4.223633,38.220215,25.021362,-12.454224,-0.55542,17.617798,-57.434082,24.462891,-63.818359,-4.351807,-9.768677,-32.266235,46.273804,3.985596,27.069092,60.806274,5.856323,10.549927,-51.184082,-60.015869,42.987061,-57.434082,39.68811,29.000854,-22.647095,-47.143555,-8.261108,-58.969116,-21.878052,8.468628,-31.732178,53.90625,33.868408,43.136597,30.456543,-40.802002,-54.364014,-27.984619,-12.884521,22.109985,-21.871948,7.266235,-40.127563,12.097168,-3.512573,3.863525,43.75,15.060425,25.079346,1.266479,-16.021729,-17.834473,-26.107788,-13.638306,40.255737,27.935791,-50.445557,60.101318,21.072388,43.984985,29.226685,-65.432739,45.147705,-6.814575,18.783569,23.239136,6.210327,10.568237,12.341309,-20.053101,-8.554077,-21.14563,25.384521,-46.14563,-20.446777,37.615967,19.012451,-61.752319,28.579712,52.670288,51.934814,-53.033447,-27.645874,20.089722,-63.43689,22.442627,-31.124878,11.325073,-63.754272,-48.513794,6.454468,-43.054199
55.786133,62.799072,10.736084,50.662231,-45.446777,-59.088135,-57.965088,74.661255,4.223633,38.220215,21.899414,-12.454224,-0.55542,17.617798,-57.434082,24.462891,-63.818359,-4.351807,-9.768677,-32.266235,46.273804,2.172852,24.990845,59.414673,5.856323,10.549927,-51.184082,-60.015869,42.987061,-57.434082,46.078491,26.922607,-25.759888,-50.634766,-8.261108,-58.969116,-24.169922,6.152344,-31.732178,53.90625,30.325317,44.232178,30.456543,-40.802002,-54.364014,-27.984619,-12.884521,22.109985,-21.871948,7.266235,-40.127563,12.097168,-3.512573,3.863525,43.75,12.631226,25.079346,1.266479,-16.021729,-17.834473,-15.362549,-13.638306,40.255737,26.05896,-50.445557,60.101318,33.209229,43.984985,29.226685,-65.432739,45.147705,-6.814575,18.783569,23.239136,6.210327,10.568237,12.341309,-20.053101,-9.643555,-24.691772,35.427856,-46.14563,-20.446777,37.615967,17.565918,-49.743652,28.579712,52.670288,51.934814,-53.033447,-27.645874,20.089722,-63.43689,22.442627,-31.124878,11.325073,-63.754272,-48.513794,6.454468,-43.054199
55.786133,62.799072,10.742188,50.662231,-45.446777,-61.00769,-60.26001,75.100708,1.116943,33.712769,21.899414,-15.371704,-4.043579,17.617798,-57.434082,24.462891,-63.818359,-4.351807,-9.768677,-32.266235,46.273804,2.172852,24.990845,59.414673,5.856323,10.549927,-32.772827,-60.015869,42.987061,-57.434082,46.078491,26.922607,-25.759888,-50.634766,-8.261108,-62.347412,-24.169922,6.152344,-33.837891,54.333496,30.325317,44.232178,30.456543,-42.596436,-53.631592,-27.984619,-12.884521,22.109985,-21.871948,24.560547,-43.875122,31.552124,17.010498,1.104736,42.29126,12.631226,23.495483,-1.992798,-16.021729,-21.005249,-15.362549,-13.638306,36.074829,26.05896,-50.445557,60.101318,33.209229,43.984985,26.901245,-68.804932,45.147705,-6.814575,21.191406,23.239136,6.210327,10.568237,12.341309,-20.053101,-9.643555,-24.691772,35.427856,-46.14563,-20.446777,37.615967,17.565918,-49.743652,28.579712,50.665283,56.399536,-57.617188,-27.645874,20.089722,-63.43689,20.733643,-34.594727,6.970215,-63.754272,-48.513794,4.202271,-46.166992
55.786133,62.799072,10.742188,44.485474,-45.446777,-61.00769,-60.26001,75.100708,1.116943,33.712769,21.899414,-15.371704,-4.043579,17.675781,-59.75647,18.444824,-56.085205,-7.327271,17.752075,-4.040527,45.553589,2.172852,24.990845,59.414673,5.856323,8.416748,-32.772827,-64.18457,39.361572,-61.523438,46.078491,26.922607,-25.759888,-50.634766,-8.261108,-62.347412,-24.169922,6.152344,-33.837891,54.333496,30.325317,44.232178,41.470337,-42.596436,-53.631592,-31.900024,-15.402222,20.214844,-23.703003,24.560547,-43.875122,31.552124,17.010498,1.104736,42.29126,12.631226,23.495483,-1.992798,-19.277954,-21.005249,-15.362549,-16.586304,36.074829,26.05896,-53.540039,55.618286,33.209229,44.296265,26.901245,-68.804932,43.179321,7.290649,21.191406,23.239136,3.747559,7.727051,10.348511,-1.809692,-9.643555,-24.691772,35.427856,-46.14563,-24.185181,35.067749,17.565918,-49.743652,27.423096,50.665283,56.399536,-57.617188,-30.862427,19.406128,-66.983032,20.733643,-34.594727,6.970215,-64.855957,-50.3479,4.202271,-46.166992
48.846436,73.904419,10.742188,44.485474,-48.483276,-61.00769,-60.26001,75.100708,1.116943,33.712769,21.899414,-15.371704,-4.043579,17.675781,-59.75647,18.444824,-56.085205,-7.327271,17.752075,-4.040527,45.553589,2.172852,24.990845,57.952881,5.075073,8.416748,-32.772827,-64.18457,39.361572,-61.523438,48.339844,25.43335,-28.890991,-53.466797,9.27124,-62.347412,-24.169922,3.710938,-33.837891,54.333496,30.325317,45.040894,41.470337,-42.596436,-53.631592,-31.900024,-15.402222,20.214844,-23.703003,24.560547,-43.875122,31.552124,17.010498,1.104736,42.29126,10.092163,23.495483,-1.992798,-19.277954,-21.005249,-15.362549,-16.586304,36.074829,26.05896,-53.540039,55.618286,41.061401,44.296265,26.901245,-68.804932,43.179321,7.290649,21.191406,23.052979,3.747559,7.727051,10.348511,-1.809692,-10.281372,-28.421021,41.766357,-49.136353,-24.185181,35.067749,17.565918,-31.512451,27.423096,50.665283,56.399536,-57.617188,-30.862427,19.406128,-66.983032,20.733643,-34.594727,6.970215,-64.855957,-50.3479,4.202271,-46.166992
48.846436,73.904419,10.058594,44.485474,-48.483276,-62.884521,-63.378906,74.560547,-1.78833,29.736328,19.192505,-18.301392,-7.745361,17.675781,-59.75647,18.444824,-56.085205,-7.327271,17.752075,-4.040527,45.553589,1.361084,23.944092,57.952881,5.075073,8.416748,-11.083984,-64.18457,39.361572,-61.523438,48.339844,25.43335,-28.890991,-53.466797,9.27124,-61.416626,-26.708984,3.710938,-36.898804,53.945923,27.481079,45.040894,41.470337,-43.811035,-48.687744,-31.900024,-15.402222,20.214844,-23.703003,24.560547,-47.158813,46.170044,34.213257,-1.904297,40.231323,10.092163,22.695923,-5.291748,-19.277954,-21.005249,-3.033447,-16.586304,32.473755,23.980713,-53.540039,55.618286,41.061401,44.296265,25.250244,-70.98999,43.179321,7.290649,21.191406,23.052979,3.747559,7.727051,10.348511,-1.809692,-10.281372,-28.421021,41.766357,-49.136353,-24.185181,35.067749,16.033936,-31.512451,27.423096,50.665283,56.399536,-61.099243,-30.862427,19.406128,-66.983032,19.0979,-38.964844,2.84729,-64.855957,-50.3479,1.858521,-49.047852
48.846436,73.904419,10.058594,37.719727,-48.483276,-62.884521,-63.378906,74.560547,-1.78833,29.736328,19.192505,-18.301392,-7.745361,17.675781,-63.763428,13.668823,-40.246582,-10.552979,41.299438,24.490356,45.553589,1.361084,23.944092,57.952881,5.075073,6.332397,-11.083984,-68.545532,39.361572,-66.268921,48.339844,25.43335,-28.890991,-53.466797,9.27124,-61.416626,-26.708984,3.710938,-36.898804,53.945923,27.481079,45.040894,48.544312,-43.811035,-48.687744,-35.519409,-17.828369,18.304443,-24.951172,37.854004,-47.158813,46.170044,34.213257,-1.904297,40.231323,10.092163,22.695923,-5.291748,-22.644043,-23.880005,-3.033447,-19.552612,32.473755,23.980713,-57.385254,50.579834,41.061401,43.887329,25.250244,-70.98999,40.750122,18.908691,23.239136,23.052979,1.040649,4.632568,8.035278,14.050293,-10.281372,-28.421021,41.766357,-49.136353,-24.185181,31.710815,16.033936,-31.512451,26.147461,48.217773,58.43811,-61.099243,-34.280396,19.610596,-67.224121,19.0979,-38.964844,2.84729,-65.698242,-52.297974,1.858521,-49.047852
41.622925,79.022217,10.058594,37.719727,-48.483276,-62.884521,-63.378906,74.560547,-1.78833,29.736328,19.192505,-18.301392,-7.745361,18.444824,-63.763428,13.668823,-40.246582,-10.552979,41.299438,24.490356,44.900513,1.361084,23.944092,57.952881,5.078125,6.332397,-11.083984,-68.545532,35.736084,-66.268921,48.223877,24.853516,-32.446289,-55.813599,23.651123,-61.416626,-26.708984,1.208496,-36.898804,53.945923,27.481079,45.040894,48.544312,-43.811035,-48.687744,-35.519409,-17.828369,18.304443,-24.951172,37.854004,-47.158813,46.170044,34.213257,-1.904297,40.231323,7.510376,22.695923,-5.291748,-22.644043,-23.880005,-3.033447,-19.552612,32.473755,23.980713,-57.385254,50.579834,45.516968,43.887329,25.250244,-70.98999,40.750122,18.908691,23.239136,21.588135,1.040649,4.632568,8.035278,14.050293,-10.083008,-32.064819,45.474243,-51.367188,-27.694702,31.710815,16.033936,-31.512451,26.147461,48.217773,58.43811,-61.099243,-34.280396,19.610596,-67.224121,19.0979,-38.964844,2.84729,-65.698242,-52.297974,1.858521,-49.047852
41.622925,79.022217,8.825684,37.719727,-51.626587,-62.884521,-66.479492,74.118042,-4.644775,26.12915,16.928101,-18.301392,-11.279297,18.444824,-63.763428,13.668823,-40.246582,-10.552979,41.299438,24.490356,44.900513,1.486206,23.751831,56.243896,5.078125,6.332397,10.443115,-68.545532,35.736084,-66.268921,48.223877,24.853516,-32.446289,-55.813599,23.651123,-54.089355,-29.486084,1.208496,-40.588379,52.667236,25.552368,45.944214,48.544312,-44.866943,-39.486694,-35.519409,-17.828369,18.304443,-24.951172,37.854004,-47.158813,46.170044,46.551514,-5.090332,37.466431,7.510376,22.549438,-8.752441,-22.644043,-23.880005,8.258057,-19.552612,29.766846,21.990967,-57.385254,50.579834,45.516968,43.887329,24.368286,-70.837402,40.750122,18.908691,23.239136,21.588135,1.040649,4.632568,8.035278,14.050293,-10.083008,-32.064819,45.474243,-51.367188,-27.694702,31.710815,14.169312,-9.811401,26.147461,48.217773,58.43811,-61.099243,-34.280396,19.610596,-67.224121,19.0979,-43.737793,-0.741577,-65.698242,-52.297974,-0.531006,-51.28479
41.622925,79.022217,8.825684,30.734253,-51.626587,-65.921021,-66.479492,74.118042,-4.644775,26.12915,16.928101,-21.575928,-11.279297,18.444824,-63.763428,13.668823,-17.800903,-14.230347,57.687378,48.016357,44.900513,1.486206,23.751831,56.243896,5.078125,4.46167,10.443115,-70.980835,35.736084,-70.010376,48.223877,24.853516,-32.446289,-55.813599,23.651123,-54.089355,-29.486084,1.208496,-40.588379,52.667236,25.552368,45.944214,48.544312,-44.866943,-39.486694,-35.519409,-20.431519,16.665649,-26.168823,46.80481,-49.975586,55.615234,46.551514,-5.090332,37.466431,7.510376,22.549438,-8.752441,-25.915527,-26.63269,8.258057,-22.491455,29.766846,21.990967,-57.385254,45.227051,45.516968,43.887329,24.368286,-70.837402,37.826538,27.172852,25.43335,21.588135,1.040649,4.632568,5.383301,25.88501,-10.083008,-32.064819,45.474243,-51.367188,-27.694702,31.710815,14.169312,-9.811401,24.517822,45.541382,59.371948,-61.233521,-37.716675,20.288086,-62.176514,17.376709,-43.737793,-0.741577,-66.409302,-55.08728,-0.531006,-51.28479
34.344482,80.062866,8.825684,30.734253,-51.626587,-65.921021,-66.479492,74.118042,-4.644775,26.12915,16.928101,-21.575928,-11.279297,19.18335,-68.664551,10.482788,-17.800903,-14.230347,57.687378,48.016357,44.073486,1.486206,23.751831,56.243896,5.307007,4.46167,10.443115,-70.980835,32.385254,-70.010376,48.223877,25.125122,-36.566162,-58.370972,33.38623,-54.089355,-29.486084,1.208496,-40.588379,52.667236,25.552368,45.944214,52.55127,-44.866943,-39.486694,-38.720703,-20.431519,16.665649,-26.168823,46.80481,-49.975586,55.615234,46.551514,-5.090332,37.466431,4.702759,22.549438,-8.752441,-25.915527,-26.63269,8.258057,-22.491455,29.766846,21.990967,-61.819458,45.227051,47.888184,42.822266,24.368286,-70.837402,37.826538,27.172852,25.43335,19.723511,-1.956177,1.437378,5.383301,25.88501,-8.92334,-35.403442,47.692871,-53.134155,-30.795288,27.963257,14.169312,-9.811401,24.517822,45.541382,59.371948,-61.233521,-37.716675,20.288086,-62.176514,17.376709,-43.737793,-0.741577,-66.409302,-55.08728,-0.531006,-51.28479
34.344482,80.062866,7.321167,30.734253,-54.547119,-65.921021,-66.479492,74.118042,-7.699585,22.88208,15.008545,-21.575928,-11.279297,19.18335,-68.664551,10.482788,-17.800903,-14.230347,57.687378,48.016357,44.073486,2.056885,24.16687,53.817749,5.307007,4.46167,28.735352,-70.980835,32.385254,-70.010376,47.192383,25.125122,-36.566162,-58.370972,33.38623,-39.907837,-32.269287,-1.300049,-40.588379,50.531006,24.462891,46.77124,52.55127,-44.866943,-39.486694,-38.720703,-20.431519,16.665649,-26.168823,46.80481,-49.975586,55.615234,46.551514,-8.505249,34.115601,4.702759,22.549438,-12.329102,-25.915527,-26.63269,16.644287,-22.491455,29.766846,20.529175,-61.819458,45.227051,47.888184,42.822266,24.230957,-66.888428,37.826538,27.172852,25.43335,19.723511,-1.956177,1.437378,5.383301,25.88501,-8.92334,-35.403442,47.692871,-53.134155,-30.795288,27.963257,11.64856,11.813354,24.517822,45.541382,59.371948,-61.233521,-37.716675,20.288086,-62.176514,17.376709,-47.265625,-3.421021,-66.409302,-55.08728,-2.859497,-52.853394
34.344482,80.062866,7.321167,24.069214,-54.547119,-70.443726,-67.462158,73.580933,-7.699585,22.88208,15.008545,-25.189209,-14.498901,19.18335,-68.664551,10.482788,-17.800903,-18.252563,66.320801,63.406372,44.073486,2.056885,24.16687,53.817749,5.307007,4.46167,28.735352,-69.018555,32.385254,-70.010376,47.192383,25.125122,-36.566162,-58.370972,33.38623,-39.907837,-32.269287,-1.300049,-43.582153,50.531006,24.462891,46.77124,52.55127,-46.414185,-27.404785,-38.720703,-20.431519,15.405273,-27.911377,52.059937,-52.694702,60.726929,54.104614,-8.505249,34.115601,4.702759,22.662354,-12.329102,-29.086304,-29.476929,16.644287,-25.271606,27.947998,20.529175,-61.819458,39.553833,47.888184,42.822266,24.230957,-66.888428,37.826538,32.266235,27.713013,19.723511,-1.956177,1.437378,5.383301,33.605957,-8.92334,-35.403442,47.692871,-53.134155,-30.795288,27.963257,11.64856,11.813354,22.525024,42.514038,59.939575,-55.886841,-37.716675,20.288086,-50.723267,15.380859,-47.265625,-3.421021,-66.409302,-58.966064,-2.859497,-52.853394
34.344482,78.897095,7.321167,24.069214,-54.547119,-70.443726,-67.462158,73.580933,-7.699585,22.88208,15.008545,-25.189209,-14.498901,19.436646,-71.990967,9.140015,7.357788,-18.252563,66.320801,63.406372,42.752075,2.056885,24.16687,53.817749,5.142212,2.786255,28.735352,-69.018555,29.641724,-70.672607,47.192383,25.125122,-36.566162,-61.82251,38.613892,-39.907837,-32.269287,-1.300049,-43.582153,50.531006,24.462891,46.77124,54.608154,-46.414185,-27.404785,-41.793823,-23.324585,15.405273,-27.911377,52.059937,-52.694702,60.726929,54.104614,-8.505249,34.115601,1.675415,22.662354,-12.329102,-29.086304,-29.476929,16.644287,-25.271606,27.947998,20.529175,-65.563965,39.553833,47.888184,41.05835,24.230957,-66.888428,34.506226,32.266235,27.713013,17.773438,-5.307007,-1.669312,2.420044,33.605957,-8.92334,-38.595581,49.215698,-55.218506,-33.563232,24.118042,11.64856,11.813354,22.525024,42.514038,59.939575,-55.886841,-40.689087,20.736694,-50.723267,15.380859,-47.265625,-3.421021,-66.796875,-58.966064,-2.859497,-52.853394
27.368164,78.897095,7.321167,24.069214,-56.87561,-70.443726,-67.462158,73.580933,-7.699585,20.037842,13.241577,-25.189209,-14.498901,19.436646,-71.990967,9.140015,7.357788,-18.252563,66.320801,63.406372,42.752075,2.648926,24.511719,50.55542,5.142212,2.786255,41.943359,-69.018555,29.641724,-70.672607,45.883179,25.997925,-41.040039,-61.82251,38.613892,-20.571899,-34.625244,-3.7323,-43.582153,50.531006,23.971558,47.088623,54.608154,-46.414185,-27.404785,-41.793823,-23.324585,15.405273,-27.911377,52.059937,-52.694702,60.726929,54.104614,-8.505249,30.325317,1.675415,22.662354,-12.329102,-29.086304,-29.476929,21.200562,-25.271606,27.947998,19.821167,-65.563965,39.553833,49.108887,41.05835,24.230957,-66.888428,34.506226,32.266235,27.713013,17.773438,-5.307007,-1.669312,2.420044,33.605957,-6.903076,-38.595581,49.215698,-55.218506,-33.563232,24.118042,8.535767,30.090332,22.525024,42.514038,59.939575,-55.886841,-40.689087,20.736694,-50.723267,15.380859,-47.265625,-3.421021,-66.796875,-58.966064,-2.859497,-52.853394
27.368164,78.897095,5.731201,18.182373,-56.87561,-75.067139,-63.491821,72.045898,-11.013794,20.037842,13.241577,-28.83606,-17.504883,19.436646,-71.990967,9.140015,7.357788,-18.252563,66.320801,70.343018,42.752075,2.648926,24.511719,50.55542,5.142212,2.786255,41.943359,-69.018555,29.641724,-70.672607,45.883179,25.997925,-41.040039,-61.82251,38.613892,-20.571899,-34.625244,-3.7323,-44.067383,47.668457,23.971558,47.088623,54.608154,-48.87085,-14.648438,-41.793823,-23.324585,15.405273,-30.59082,54.812622,-55.978394,62.915039,58.026123,-12.197876,30.325317,1.675415,22.793579,-16.040039,-32.128906,-32.580566,21.200562,-28.033447,26.837158,19.821167,-65.563965,39.553833,49.108887,41.05835,24.60022,-58.169556,34.506226,35.119629,29.63562,17.773438,-5.307007,-1.669312,2.420044,33.605957,-6.903076,-38.595581,49.215698,-55.218506,-33.563232,24.118042,8.535767,30.090332,20.108032,39.108276,60.05249,-44.589233,-40.689087,20.736694,-50.723267,12.838745,-47.210693,-5.010986,-66.796875,-58.966064,-5.053711,-54.119873
27.368164,78.897095,5.731201,18.182373,-56.87561,-75.067139,-63.491821,72.045898,-11.013794,20.037842,13.241577,-28.83606,-17.504883,18.963623,-70.257568,9.387207,30.633545,-22.384644,69.012451,70.343018,40.567017,2.648926,24.511719,50.55542,4.232788,1.220703,41.943359,-60.601807,27.700806,-66.143799,45.883179,25.997925,-41.040039,-61.82251,40.527344,-20.571899,-34.625244,-3.7323,-44.067383,47.668457,23.971558,47.088623,55.508423,-48.87085,-14.648438,-45.376587,-26.541138,14.764404,-30.59082,54.812622,-55.978394,62.915039,58.026123,-12.197876,30.325317,1.675415,22.793579,-16.040039,-32.128906,-32.580566,21.200562,-28.033447,26.837158,19.821167,-66.894531,33.682251,49.108887,38.708496,24.60022,-58.169556,31.124878,35.119629,29.63562,15.734863,-8.920288,-4.675293,-0.686646,38.217163,-6.903076,-38.595581,49.215698,-58.24585,-36.38916,20.526123,8.535767,30.090332,20.108032,39.108276,60.05249,-44.589233,-43.145752,20.584106,-33.856201,12.838745,-47.210693,-5.010986,-66.714478,-62.850952,-5.053711,-54.119873
21.282959,76.599121,5.731201,18.182373,-58.084106,-75.067139,-63.491821,72.045898,-11.013794,20.037842,11.358643,-28.83606,-17.504883,18.963623,-70.257568,9.387207,30.633545,-22.384644,69.012451,70.343018,40.567017,2.563477,24.386597,46.450806,4.232788,1.220703,41.943359,-60.601807,27.700806,-66.143799,44.317627,26.974487,-45.333862,-66.19873,40.527344,-20.571899,-36.331177,-6.155396,-44.067383,47.668457,23.660278,46.633911,55.508423,-48.87085,-14.648438,-45.376587,-26.541138,14.764404,-30.59082,54.812622,-55.978394,62.915039,58.026123,-12.197876,30.325317,-1.617432,22.793579,-16.040039,-32.128906,-32.580566,22.549438,-28.033447,26.837158,19.863892,-66.894531,33.682251,49.752808,38.708496,24.60022,-58.169556,31.124878,35.119629,29.63562,15.734863,-8.920288,-4.675293,-0.686646,38.217163,-4.483032,-42.123413,50.283813,-58.24585,-36.38916,20.526123,5.105591,43.301392,20.108032,39.108276,60.05249,-44.589233,-43.145752,20.584106,-33.856201,12.838745,-47.210693,-5.010986,-66.714478,-62.850952,-5.053711,-54.119873
21.282959,76.599121,4.095459,18.182373,-58.084106,-76.657104,-52.349854,68.838501,-14.456177,17.62085,11.358643,-32.073975,-20.605469,18.963623,-70.257568,9.387207,30.633545,-22.384644,69.012451,70.343018,40.567017,2.563477,24.386597,46.450806,4.232788,1.220703,49.853516,-60.601807,27.700806,-66.143799,44.317627,26.974487,-45.333862,-66.19873,40.527344,0.640869,-36.331177,-6.155396,-40.301514,44.37561,23.660278,46.633911,55.508423,-51.791382,-3.518677,-45.376587,-26.541138,14.764404,-30.59082,56.036377,-60.110474,63.360596,59.851074,-16.192627,26.269531,-1.617432,22.60437,-19.644165,-32.128906,-35.806274,22.549438,-28.033447,26.071167,19.863892,-66.894531,33.682251,49.752808,38.708496,25.198364,-44.958496,31.124878,35.119629,30.81665,15.734863,-8.920288,-4.675293,-0.686646,38.217163,-4.483032,-42.123413,50.283813,-58.24585,-36.38916,20.526123,5.105591,43.301392,20.108032,35.266113,59.454346,-28.573608,-43.145752,20.584106,-33.856201,9.82666,-41.775513,-5.514526,-66.714478,-62.850952,-7.092285,-55.740356
21.282959,76.599121,4.095459,13.638306,-58.084106,-76.657104,-52.349854,68.838501,-14.456177,17.62085,11.358643,-32.073975,-20.605469,17.889404,-60.598755,10.693359,48.248291,-26.156616,68.460083,71.078491,37.652588,2.563477,24.386597,46.450806,4.232788,-0.411987,49.853516,-45.214844,26.623535,-55.06897,44.317627,26.974487,-45.333862,-66.19873,40.527344,0.640869,-36.331177,-6.155396,-40.301514,44.37561,23.660278,46.633911,55.700684,-51.791382,-3.518677,-49.893188,-29.776001,14.593506,-33.666992,56.036377,-60.110474,63.360596,59.851074,-16.192627,26.269531,-1.617432,22.60437,-19.644165,-35.321045,-35.806274,22.549438,-30.877686,26.071167,19.863892,-64.160156,27.734375,49.752808,35.903931,25.198364,-44.958496,28.082275,36.77063,30.81665,15.734863,-12.649536,-7.659912,-3.80249,41.140747,-4.483032,-42.123413,50.283813,-58.24585,-39.605713,17.468262,5.105591,43.301392,17.507935,35.266113,59.454346,-28.573608,-45.20874,19.58313,-14.108276,9.82666,-41.775513,-5.514526,-66.107178,-64.648438,-7.092285,-55.740356
16.656494,73.486328,4.095459,13.638306,-57.510376,-76.657104,-52.349854,68.838501,-14.456177,17.62085,11.358643,-32.073975,-20.605469,17.889404,-60.598755,10.693359,48.248291,-26.156616,68.460083,71.078491,37.652588,2.563477,24.386597,41.867065,2.532959,-0.411987,49.853516,-45.214844,26.623535,-55.06897,42.138672,27.642822,-48.999023,-70.123291,40.637207,0.640869,-36.331177,-8.621216,-40.301514,44.37561,23.660278,45.358276,55.700684,-51.791382,-3.518677,-49.893188,-29.776001,14.593506,-33.666992,56.036377,-60.110474,63.360596,59.851074,-16.192627,26.269531,-4.934692,22.60437,-19.644165,-35.321045,-35.806274,22.549438,-30.877686,26.071167,19.863892,-64.160156,27.734375,49.89624,35.903931,25.198364,-44.958496,28.082275,36.77063,30.81665,13.360596,-12.649536,-7.659912,-3.80249,41.140747,-2.18811,-46.600342,50.823975,-62.081909,-39.605713,17.468262,5.105591,51.348877,17.507935,35.266113,59.454346,-28.573608,-45.20874,19.58313,-14.108276,9.82666,-41.775513,-5.514526,-66.107178,-64.648438,-7.092285,-55.740356
16.656494,73.486328,2.258301,13.638306,-57.510376,-71.710205,-33.609009,63.931274,-17.736816,15.478516,9.240723,-34.719849,-23.974609,17.889404,-60.598755,10.693359,48.248291,-26.156616,68.460083,71.078491,37.652588,1.553345,23.428345,41.867065,2.532959,-0.411987,53.460693,-45.214844,26.623535,-55.06897,42.138672,27.642822,-48.999023,-70.123291,40.637207,20.013428,-37.521362,-8.621216,-31.628418,40.866089,23.190308,45.358276,55.700684,-53.759766,4.53186,-49.893188,-29.776001,14.593506,-33.666992,56.036377,-64.578247,62.765503,60.736084,-20.352173,22.10083,-4.934692,22.036743,-23.071289,-35.321045,-35.806274,21.951294,-30.877686,25.344849,20.330811,-64.160156,27.734375,49.89624,35.903931,25.640869,-28.69873,28.082275,36.77063,30.81665,13.360596,-12.649536,-7.659912,-3.80249,41.140747,-2.18811,-46.600342,50.823975,-62.081909,-39.605713,17.468262,1.904297,51.348877,17.507935,35.266113,59.454346,-10.855103,-45.20874,19.58313,-14.108276,6.518555,-30.563354,-5.349731,-66.107178,-64.648438,-9.091187,-58.010864
16.656494,73.486328,2.258301,10.769653,-57.510376,-71.710205,-33.609009,63.931274,-17.736816,15.478516,9.240723,-34.719849,-23.974609,17.889404,-42.163086,12.161255,58.746338,-29.330444,67.050171,68.69812,37.652588,1.553345,23.428345,41.867065,2.532959,-2.297974,53.460693,-24.42627,26.623535,-37.89978,42.138672,27.642822,-48.999023,-70.123291,40.637207,20.013428,-37.521362,-8.621216,-31.628418,40.866089,23.190308,45.358276,55.307007,-53.759766,4.53186,-55.032349,-32.809448,14.691162,-35.946655,56.329346,-64.578247,62.765503,60.736084,-20.352173,22.10083,-4.934692,22.036743,-23.071289,-38.720703,-38.864136,21.951294,-34.0271,25.344849,20.330811,-56.240845,22.116089,49.89624,33.053589,25.640869,-28.69873,25.769043,37.976074,31.051636,13.360596,-16.253662,-10.812378,-6.851196,43.438721,-2.18811,-46.600342,50.823975,-62.081909,-39.605713,15.255737,1.904297,51.348877,14.79187,31.332397,57.818604,-10.855103,-47.567749,17.962646,5.026245,6.518555,-30.563354,-5.349731,-65.310669,-61.749268,-9.091187,-58.010864
13.861084,69.403076,2.258301,10.769653,-57.510376,-71.710205,-33.609009,63.931274,-17.736816,15.478516,9.240723,-34.719849,-23.974609,16.317749,-42.163086,12.161255,58.746338,-29.330444,67.050171,68.69812,34.194946,1.553345,23.428345,41.867065,0.332642,-2.297974,53.460693,-24.42627,26.199341,-37.89978,39.102173,27.737427,-52.01416,-71.554565,39.962769,20.013428,-37.521362,-11.288452,-31.628418,40.866089,23.190308,45.358276,55.307007,-53.759766,4.53186,-55.032349,-32.809448,14.691162,-35.946655,56.329346,-64.578247,62.765503,60.736084,-20.352173,22.10083,-8.187866,22.036743,-23.071289,-38.720703,-38.864136,21.951294,-34.0271,25.344849,20.330811,-56.240845,22.116089,49.594116,33.053589,25.640869,-28.69873,25.769043,37.976074,31.051636,10.592651,-16.253662,-10.812378,-6.851196,43.438721,-0.515747,-52.163696,50.592041,-65.2771,-43.270874,15.255737,1.904297,51.348877,14.79187,31.332397,57.818604,-10.855103,-47.567749,17.962646,5.026245,6.518555,-30.563354,-5.349731,-65.310669,-61.749268,-9.091187,-58.010864
13.861084,69.403076,0.088501,10.769653,-54.400635,-71.710205,-9.277344,57.958984,-20.69397,13.400269,6.854248,-34.719849,-27.55127,16.317749,-42.163086,12.161255,58.746338,-29.330444,67.050171,68.69812,34.194946,-0.515747,21.813965,37.145996,0.332642,-2.297974,54.333496,-24.42627,26.199341,-37.89978,39.102173,27.737427,-52.01416,-71.554565,39.962769,34.854126,-38.867188,-11.288452,-18.817139,37.310791,22.320557,43.405151,55.307007,-52.624512,9.191895,-55.032349,-32.809448,14.691162,-35.946655,56.329346,-64.578247,61.340332,61.218262,-24.484253,18.1427,-8.187866,20.968628,-26.242065,-38.720703,-38.864136,20.959473,-34.0271,24.42627,20.809937,-56.240845,22.116089,49.594116,33.053589,25.704956,-11.651611,25.769043,37.976074,31.051636,10.592651,-16.253662,-10.812378,-6.851196,43.438721,-0.515747,-52.163696,50.592041,-65.2771,-43.270874,15.255737,-0.784302,55.474854,14.79187,31.332397,57.818604,-10.855103,-47.567749,17.962646,5.026245,6.518555,-15.170288,-5.020142,-65.310669,-61.749268,-11.230469,-60.531616
13.861084,69.403076,0.088501,9.7229,-54.400635,-57.827759,-9.277344,57.958984,-20.69397,13.400269,6.854248,-37.014771,-27.55127,16.317749,-42.163086,12.161255,62.902832,-31.915283,65.817261,65.866089,34.194946,-0.515747,21.813965,37.145996,0.332642,-4.443359,54.333496,-1.35498,26.199341,-16.78772,39.102173,27.737427,-52.01416,-71.554565,39.962769,34.854126,-38.867188,-11.288452,-18.817139,37.310791,22.320557,43.405151,55.307007,-52.624512,9.191895,-55.032349,-35.48584,14.572144,-35.540771,55.789185,-67.724609,61.340332,61.218262,-24.484253,18.1427,-8.187866,20.968628,-26.242065,-42.398071,-41.531372,20.959473,-37.356567,24.42627,20.809937,-56.240845,17.245483,49.594116,33.053589,25.704956,-11.651611,24.298096,38.99231,30.450439,10.592651,-16.253662,-10.812378,-9.902954,45.562744,-0.515747,-52.163696,50.592041,-65.2771,-43.270874,15.255737,-0.784302,55.474854,12.164307,27.694702,55.206299,5.395508,-50.665283,15.936279,20.71228,3.277588,-15.170288,-5.020142,-64.886475,-52.444458,-11.230469,-60.531616
12.771606,64.23645,0.088501,9.7229,-54.400635,-57.827759,-9.277344,57.958984,-20.69397,13.400269,6.854248,-37.014771,-27.55127,14.447021,-17.056274,13.052368,62.902832,-31.915283,65.817261,65.866089,30.661011,-0.515747,21.813965,37.145996,-2.062988,-4.443359,54.333496,-1.35498,26.104736,-16.78772,39.102173,27.279663,-54.974365,-68.276978,38.851929,34.854126,-38.867188,-11.288452,-18.817139,37.310791,22.320557,43.405151,54.385376,-52.624512,9.191895,-59.381104,-35.48584,14.572144,-35.540771,55.789185,-67.724609,61.340332,61.218262,-24.484253,18.1427,-11.187744,20.968628,-26.242065,-42.398071,-41.531372,20.959473,-37.356567,24.42627,20.809937,-43.310547,17.245483,48.76709,30.493164,25.704956,-11.651611,24.298096,38.99231,30.450439,7.489014,-19.644165,-14.193726,-9.902954,45.562744,0.372314,-58.236694,49.481201,-65.46936,-46.975708,14.019775,-0.784302,55.474854,12.164307,27.694702,55.206299,5.395508,-50.665283,15.936279,20.71228,3.277588,-15.170288,-5.020142,-64.886475,-52.444458,-11.230469,-60.531616
12.771606,64.23645,-2.453613,9.7229,-48.205566,-57.827759,-9.277344,57.958984,-23.352051,11.14502,4.354858,-37.014771,-27.55127,14.447021,-17.056274,13.052368,62.902832,-31.915283,65.817261,65.866089,30.661011,-3.237915,19.747925,32.809448,-2.062988,-4.443359,53.796387,-1.35498,26.104736,-16.78772,35.220337,27.279663,-54.974365,-68.276978,38.851929,44.155884,-41.00647,-14.13269,-18.817139,33.789063,21.026611,40.905762,54.385376,-52.624512,9.191895,-59.381104,-35.48584,14.572144,-35.540771,55.789185,-67.724609,61.340332,61.218262,-28.393555,14.77356,-11.187744,20.968628,-29.376221,-42.398071,-41.531372,20.361328,-37.356567,24.42627,20.941162,-43.310547,17.245483,48.76709,30.493164,25.219727,3.948975,24.298096,38.99231,30.450439,7.489014,-19.644165,-14.193726,-9.902954,45.562744,0.372314,-58.236694,49.481201,-65.46936,-46.975708,14.019775,-3.009033,57.174683,12.164307,27.694702,55.206299,5.395508,-50.665283,15.936279,20.71228,3.277588,1.513672,-5.065918,-64.886475,-52.444458,-14.349365,-61.856079
12.771606,64.23645,-2.453613,10.137939,-48.205566,-35.3302,16.78772,51.742554,-23.352051,11.14502,4.354858,-39.553833,-30.963135,14.447021,-17.056274,13.052368,62.902832,-34.411621,64.730835,63.659668,30.661011,-3.237915,19.747925,32.809448,-2.062988,-4.443359,53.796387,20.315552,26.104736,-16.78772,35.220337,27.279663,-54.974365,-68.276978,38.851929,44.155884,-41.00647,-14.13269,-3.991699,33.789063,21.026611,40.905762,54.385376,-46.463013,11.306763,-59.381104,-35.48584,13.977051,-31.033325,54.35791,-67.349243,59.121704,61.251831,-28.393555,14.77356,-11.187744,19.506836,-29.376221,-45.97168,-44.259644,20.361328,-40.69519,23.242188,20.941162,-43.310547,13.540649,48.76709,30.493164,25.219727,3.948975,24.298096,39.807129,29.208374,7.489014,-19.644165,-14.193726,-9.902954,47.381592,0.372314,-58.236694,49.481201,-65.46936,-46.975708,14.019775,-3.009033,57.174683,9.545898,24.856567,51.733398,17.63916,-50.665283,15.936279,31.350708,0.253296,1.513672,-5.065918,-64.886475,-36.691284,-14.349365,-61.856079
12.771606,58.068848,-2.453613,10.137939,-48.205566,-35.3302,16.78772,51.742554,-23.352051,11.14502,4.354858,-39.553833,-30.963135,12.307739,10.440063,12.863159,63.104248,-34.411621,64.730835,63.659668,27.255249,-3.237915,19.747925,32.809448,-4.425049,-6.652832,53.796387,20.315552,25.900269,5.0354,35.220337,27.279663,-54.974365,-58.590698,37.069702,44.155884,-41.00647,-14.13269,-3.991699,33.789063,21.026611,40.905762,52.941895,-46.463013,11.306763,-60.830688,-38.009644,13.977051,-31.033325,54.35791,-67.349243,59.121704,61.251831,-28.393555,14.77356,-14.108276,19.506836,-29.376221,-45.97168,-44.259644,20.361328,-40.69519,23.242188,20.941162,-27.072144,13.540649,48.76709,28.601074,25.219727,3.948975,23.577881,39.807129,29.208374,4.309082,-22.866821,-17.745972,-13.043213,47.381592,0.372314,-63.348389,47.454834,-60.217285,-50.167847,13.674927,-3.009033,57.174683,9.545898,24.856567,51.733398,17.63916,-54.556274,13.793945,31.350708,0.253296,1.513672,-5.065918,-65.267944,-36.691284,-14.349365,-61.856079
12.826538,58.068848,-2.453613,10.137939,-38.812256,-35.3302,16.78772,51.742554,-23.352051,8.673096,1.843262,-39.553833,-30.963135,12.307739,10.440063,12.863159,63.104248,-34.411621,64.730835,63.659668,27.255249,-6.274414,17.614746,29.190063,-4.425049,-6.652832,52.694702,20.315552,25.900269,5.0354,30.822754,26.397705,-58.621216,-58.590698,37.069702,48.703003,-44.125366,-17.098999,-3.991699,33.789063,19.363403,38.00354,52.941895,-46.463013,11.306763,-60.830688,-38.009644,13.977051,-31.033325,54.35791,-67.349243,59.121704,61.251831,-28.393555,12.423706,-14.108276,19.506836,-29.376221,-45.97168,-44.259644,20.431519,-40.69519,23.242188,20.666504,-27.072144,13.540649,47.525024,28.601074,25.219727,3.948975,23.577881,39.807129,29.208374,4.309082,-22.866821,-17.745972,-13.043213,47.381592,0.579834,-63.348389,47.454834,-60.217285,-50.167847,13.674927,-5.300903,57.705688,9.545898,24.856567,51.733398,17.63916,-54.556274,13.793945,31.350708,0.253296,1.513672,-5.065918,-65.267944,-36.691284,-14.349365,-61.856079
12.826538,58.068848,-5.194092,11.364746,-38.812256,-7.504272,40.176392,45.925903,-25.98877,8.673096,1.843262,-42.791748,-33.972168,12.307739,10.440063,12.863159,63.104248,-34.411621,64.730835,61.907959,27.255249,-6.274414,17.614746,29.190063,-4.425049,-6.652832,52.694702,20.315552,25.900269,5.0354,30.822754,26.397705,-58.621216,-58.590698,37.069702,48.703003,-44.125366,-17.098999,10.250854,30.459595,19.363403,38.00354,52.941895,-34.448242,12.112427,-60.830688,-38.009644,13.977051,-21.899414,51.983643,-61.398315,56.143188,60.610962,-32.125854,12.423706,-14.108276,17.651367,-32.629395,-49.169922,-46.972656,20.431519,-43.615723,21.762085,20.666504,-27.072144,13.540649,47.525024,28.601074,24.200439,16.513062,23.577881,40.237427,27.627563,4.309082,-22.866821,-17.745972,-13.043213,47.381592,0.579834,-63.348389,47.454834,-60.217285,-50.167847,13.674927,-5.300903,57.705688,6.958008,22.952271,47.698975,25.189209,-54.556274,13.793945,31.350708,-2.526855,16.308594,-5.709839,-65.267944,-36.691284,-17.645264,-60.061646
12.826538,58.068848,-5.194092,11.364746,-38.812256,-7.504272,40.176392,45.925903,-25.98877,8.673096,1.843262,-42.791748,-33.972168,10.003662,35.263062,11.624146,61.764526,-37.295532,63.079834,61.907959,24.346924,-6.274414,17.614746,29.190063,-6.826782,-8.822632,52.694702,37.713623,25.308228,24.453735,30.822754,26.397705,-58.621216,-58.590698,34.341431,48.703003,-44.125366,-17.098999,10.250854,30.459595,19.363403,38.00354,51.043701,-34.448242,12.112427,-57.254028,-40.640259,12.704468,-21.899414,51.983643,-61.398315,56.143188,60.610962,-32.125854,12.423706,-14.108276,17.651367,-32.629395,-49.169922,-46.972656,20.431519,-43.615723,21.762085,20.666504,-10.061646,11.053467,47.525024,27.410889,24.200439,16.513062,23.284912,40.237427,27.627563,1.287842,-26.135254,-21.24939,-16.320801,48.629761,0.579834,-63.348389,47.454834,-48.248291,-52.520752,13.806152,-5.300903,57.705688,6.958008,22.952271,47.698975,25.189209,-58.172607,11.465454,37.240601,-2.526855,16.308594,-5.709839,-66.040039,-16.592407,-17.645264,-60.061646
13.214111,51.220703,-5.194092,11.364746,-26.821899,-7.504272,40.176392,45.925903,-25.98877,8.673096,-0.634766,-42.791748,-33.972168,10.003662,35.263062,11.624146,61.764526,-37.295532,63.079834,61.907959,24.346924,-9.21936,15.411377,26.669312,-6.826782,-8.822632,52.694702,37.713623,25.308228,24.453735,26.345825,25.305176,-63.278198,-42.34314,34.341431,48.703003,-47.335815,-20.004272,10.250854,30.459595,17.483521,34.796143,51.043701,-34.448242,12.112427,-57.254028,-40.640259,12.704468,-21.899414,51.983643,-61.398315,56.143188,60.610962,-32.125854,12.423706,-17.034912,17.651367,-32.629395,-49.169922,-46.972656,20.639038,-43.615723,21.762085,20.050049,-10.061646,11.053467,45.822144,27.410889,24.200439,16.513062,23.284912,40.237427,27.627563,1.287842,-26.135254,-21.24939,-16.320801,48.629761,0.527954,-65.686035,44.619751,-48.248291,-52.520752,13.806152,-8.148193,57.556152,6.958008,22.952271,47.698975,25.189209,-58.172607,11.465454,37.240601,-2.526855,16.308594,-5.709839,-66.040039,-16.592407,-17.645264,-60.061646
13.214111,51.220703,-7.891846,11.364746,-26.821899,20.477295,57.611084,40.713501,-28.833008,6.048584,-0.634766,-46.728516,-36.495972,10.003662,35.263062,11.624146,61.764526,-37.295532,63.079834,61.907959,24.346924,-9.21936,15.411377,26.669312,-6.826782,-8.822632,51.281738,37.713623,25.308228,24.453735,26.345825,25.305176,-63.278198,-42.34314,34.341431,50.164795,-47.335815,-20.004272,21.70105,27.542114,17.483521,34.796143,51.043701,-17.480469,12.796021,-57.254028,-40.640259,12.704468,-21.899414,48.815918,-49.0448,52.56958,59.04541,-35.855103,11.276245,-17.034912,15.545654,-36.157227,-49.169922,-50.363159,20.639038,-43.615723,20.059204,20.050049,-10.061646,11.053467,45.822144,27.410889,22.695923,25.543213,23.284912,40.237427,25.961304,1.287842,-26.135254,-21.24939,-16.320801,48.629761,0.527954,-65.686035,44.619751,-48.248291,-52.520752,13.806152,-8.148193,57.556152,6.958008,21.932983,43.228149,28.765869,-58.172607,11.465454,37.240601,-5.343628,27.127075,-6.915283,-66.040039,-16.592407,-20.846558,-53.427124
13.214111,51.220703,-7.891846,12.524414,-26.821899,20.477295,57.611084,40.713501,-28.833008,6.048584,-0.634766,-46.728516,-36.495972,7.53479,53.689575,9.564209,60.55603,-40.875244,60.409546,59.661865,22.103882,-9.21936,15.411377,26.669312,-6.826782,-10.86731,51.281738,49.514771,24.163818,39.395142,26.345825,25.305176,-63.278198,-42.34314,34.341431,50.164795,-47.335815,-20.004272,21.70105,27.542114,17.483521,34.796143,48.66333,-17.480469,12.796021,-47.576904,-43.615723,11.013794,-9.20105,48.815918,-49.0448,52.56958,59.04541,-35.855103,11.276245,-17.034912,15.545654,-36.157227,-51.751709,-50.363159,20.639038,-46.044922,20.059204,20.050049,5.175781,9.643555,45.822144,26.828003,22.695923,25.543213,23.104858,40.228271,25.961304,1.287842,-29.605103,-24.557495,-19.613647,49.093628,0.527954,-65.686035,44.619751,-48.248291,-54.364014,13.928223,-8.148193,57.556152,4.217529,21.932983,43.228149,28.765869,-59.814453,8.905029,39.642334,-5.343628,27.127075,-6.915283,-66.18042,4.510498,-20.846558,-53.427124
13.272095,44.015503,-7.891846,12.524414,-13.424683,20.477295,57.611084,40.713501,-28.833008,6.048584,-0.634766,-46.728516,-36.495972,7.53479,53.689575,9.564209,60.55603,-40.875244,60.409546,59.661865,22.103882,-9.21936,15.411377,25.253296,-9.411621,-10.86731,51.281738,49.514771,24.163818,39.395142,22.314453,24.008179,-68.041992,-21.313477,30.575562,50.164795,-47.335815,-22.766113,21.70105,27.542114,17.483521,31.542969,48.66333,-17.480469,12.796021,-47.576904,-43.615723,11.013794,-9.20105,48.815918,-49.0448,52.56958,59.04541,-35.855103,11.276245,-20.187378,15.545654,-36.157227,-51.751709,-50.363159,20.639038,-46.044922,20.059204,20.050049,5.175781,9.643555,43.682861,26.828003,22.695923,25.543213,23.104858,40.228271,25.961304,-1.35498,-29.605103,-24.557495,-19.613647,49.093628,0.692749,-64.083862,41.094971,-30.181885,-54.364014,13.928223,-8.148193,56.87561,4.217529,21.932983,43.228149,28.765869,-59.814453,8.905029,39.642334,-5.343628,27.127075,-6.915283,-66.18042,4.510498,-20.846558,-53.427124
13.272095,44.015503,-10.345459,12.524414,-13.424683,43.655396,67.953491,36.077881,-31.948853,3.451538,-3.170776,-50.717163,-38.909912,7.53479,53.689575,9.564209,60.55603,-40.875244,60.409546,59.661865,22.103882,-12.142944,13.140869,25.253296,-9.411621,-10.86731,49.563599,49.514771,24.163818,39.395142,22.314453,24.008179,-68.041992,-21.313477,30.575562,50.22583,-48.828125,-22.766113,29.428101,25.369263,15.435791,31.542969,48.66333,2.041626,13.894653,-47.576904,-43.615723,11.013794,-9.20105,48.815918,-31.140137,48.513794,56.52771,-39.846802,11.203003,-20.187378,13.162231,-39.718628,-51.751709,-50.363159,20.59021,-46.044922,18.148804,19.311523,5.175781,9.643555,43.682861,26.828003,20.825195,31.40564,23.104858,40.228271,25.961304,-1.35498,-29.605103,-24.557495,-19.613647,49.093628,0.692749,-64.083862,41.094971,-30.181885,-54.364014,13.928223,-11.761475,56.87561,4.217529,21.932983,43.228149,30.151367,-59.814453,8.905029,39.642334,-8.364868,33.502197,-8.413696,-66.18042,4.510498,-23.803711,-41.418457
13.272095,44.015503,-10.345459,12.997437,-13.424683,43.655396,67.953491,36.077881,-31.948853,3.451538,-3.170776,-50.717163,-38.909912,7.53479,64.282227,7.095337,59.768677,-44.750977,56.57959,56.219482,22.103882,-12.142944,13.140869,25.253296,-9.411621,-12.924194,49.563599,56.082153,24.163818,49.325562,22.314453,24.008179,-68.041992,-21.313477,30.575562,50.22583,-48.828125,-22.766113,29.428101,25.369263,15.435791,31.542969,45.809937,2.041626,13.894653,-32.296753,-46.731567,9.088135,4.998779,45.053101,-31.140137,48.513794,56.52771,-39.846802,11.203003,-20.187378,13.162231,-39.718628,-54.071045,-54.702759,20.59021,-48.153687,18.148804,19.311523,17.007446,8.804321,43.682861,26.498413,20.825195,31.40564,22.77832,39.73999,24.505615,-1.35498,-33.300781,-27.664185,-22.77832,48.803711,0.692749,-64.083862,41.094971,-30.181885,-54.364014,13.540649,-11.761475,56.87561,1.419067,21.377563,38.568115,30.151367,-57.373047,5.889893,40.353394,-8.364868,33.502197,-8.413696,-63.977051,23.03772,-23.803711,-41.418457
12.677002,36.755371,-10.345459,12.997437,-13.424683,43.655396,67.953491,36.077881,-31.948853,3.451538,-3.170776,-50.717163,-38.909912,4.980469,64.282227,7.095337,59.768677,-44.750977,56.57959,56.219482,20.852661,-12.142944,13.140869,25.253296,-12.316895,-12.924194,49.563599,56.082153,22.521973,49.325562,19.104004,22.491455,-70.755005,1.437378,26.055908,50.22583,-48.828125,-25.393677,29.428101,25.369263,15.435791,31.542969,45.809937,2.041626,13.894653,-32.296753,-46.731567,9.088135,4.998779,45.053101,-31.140137,48.513794,56.52771,-39.846802,11.203003,-23.428345,13.162231,-39.718628,-54.071045,-54.702759,20.59021,-48.153687,18.148804,19.311523,17.007446,8.804321,41.030884,26.498413,20.825195,31.40564,22.77832,39.73999,24.505615,-3.549194,-33.300781,-27.664185,-22.77832,48.803711,1.538086,-58.435059,37.103271,-8.59375,-56.488037,13.540649,-11.761475,56.87561,1.419067,21.377563,38.568115,30.151367,-57.373047,5.889893,40.353394,-8.364868,33.502197,-8.413696,-63.977051,23.03772,-23.803711,-41.418457
12.677002,36.755371,-12.561035,12.997437,-0.170898,43.655396,72.247314,31.900024,-35.098267,0.961304,-5.834961,-50.717163,-41.699219,4.980469,64.282227,7.095337,59.768677,-44.750977,56.57959,56.219482,20.852661,-15.103149,10.479736,24.853516,-12.316895,-12.924194,47.433472,56.082153,22.521973,49.325562,19.104004,22.491455,-70.755005,1.437378,26.055908,49.865723,-46.417236,-25.393677,33.71582,24.111938,13.259888,28.555298,45.809937,20.986938,15.402222,-32.296753,-46.731567,9.088135,4.998779,45.053101,-31.140137,48.513794,53.085327,-44.119263,11.758423,-23.428345,10.610962,-43.045044,-54.071045,-54.702759,19.842529,-48.153687,16.104126,18.508911,17.007446,8.804321,41.030884,26.498413,18.621826,35.037231,22.77832,39.73999,24.505615,-3.549194,-33.300781,-27.664185,-22.77832,48.803711,1.538086,-58.435059,37.103271,-8.59375,-56.488037,13.540649,-15.682983,55.545044,1.419067,21.377563,38.568115,30.151367,-57.373047,5.889893,40.353394,-8.364868,36.51123,-10.006714,-63.977051,23.03772,-26.553345,-25.039673
12.677002,36.755371,-12.561035,12.487793,-0.170898,59.094238,72.247314,31.900024,-35.098267,0.961304,-5.834961,-53.95813,-41.699219,4.980469,64.282227,7.095337,58.92334,-48.226929,51.867676,51.35498,20.852661,-15.103149,10.479736,24.853516,-12.316895,-15.145874,47.433472,58.825684,22.521973,54.946899,19.104004,22.491455,-70.755005,1.437378,26.055908,49.865723,-46.417236,-25.393677,33.71582,24.111938,13.259888,28.555298,45.809937,20.986938,15.402222,-32.296753,-49.615479,7.266235,18.103027,40.9729,-10.189819,44.070435,53.085327,-44.119263,11.758423,-23.428345,10.610962,-43.045044,-56.665039,-59.399414,19.842529,-50.598145,16.104126,18.508911,17.007446,8.151245,41.030884,26.498413,18.621826,35.037231,22.207642,38.78479,23.498535,-3.549194,-33.300781,-27.664185,-25.714111,47.842407,1.538086,-58.435059,37.103271,-8.59375,-56.488037,13.540649,-15.682983,55.545044,-1.437378,20.941162,33.895874,30.844116,-49.633789,2.536011,40.515137,-11.755371,36.51123,-10.006714,-57.870483,36.697388,-26.553345,-25.039673
11.520386,29.684448,-12.561035,12.487793,-0.170898,59.094238,72.247314,31.900024,-35.098267,0.961304,-5.834961,-53.95813,-41.699219,2.243042,68.173218,4.376221,58.92334,-48.226929,51.867676,51.35498,20.617676,-15.103149,10.479736,24.853516,-15.429688,-15.145874,47.433472,58.825684,20.498657,54.946899,19.104004,20.617676,-69.152832,22.549438,21.16394,49.865723,-46.417236,-25.393677,33.71582,24.111938,13.259888,28.555298,42.498779,20.986938,15.402222,-13.504028,-49.615479,7.266235,18.103027,40.9729,-10.189819,44.070435,53.085327,-44.119263,11.758423,-26.571655,10.610962,-43.045044,-56.665039,-59.399414,19.842529,-50.598145,16.104126,18.508911,24.987793,8.151245,38.024902,26.150513,18.621826,35.037231,22.207642,38.78479,23.498535,-5.169678,-36.959839,-30.825806,-25.714111,47.842407,3.302002,-49.838257,32.910156,12.985229,-59.70459,12.5,-15.682983,55.545044,-1.437378,20.941162,33.895874,30.844116,-49.633789,2.536011,40.515137,-11.755371,36.51123,-10.006714,-57.870483,36.697388,-26.553345,-25.039673
11.520386,29.684448,-14.700317,12.487793,11.566162,59.094238,72.247314,28.186035,-37.979126,-1.461792,-8.657837,-53.95813,-41.699219,2.243042,68.173218,4.376221,58.92334,-48.226929,51.867676,51.35498,20.617676,-18.429565,7.437134,24.981689,-15.429688,-15.145874,44.830322,58.825684,20.498657,54.946899,17.007446,20.617676,-69.152832,22.549438,21.16394,49.325562,-38.644409,-28.097534,33.71582,23.7854,10.879517,26.211548,42.498779,20.986938,15.402222,-13.504028,-49.615479,7.266235,18.103027,40.9729,-10.189819,44.070435,53.085327,-48.416138,12.423706,-26.571655,10.610962,-45.797729,-56.665039,-59.399414,18.496704,-50.598145,16.104126,17.62085,24.987793,8.151245,38.024902,26.150513,16.149902,37.319946,22.207642,38.78479,23.498535,-5.169678,-36.959839,-30.825806,-25.714111,47.842407,3.302002,-49.838257,32.910156,12.985229,-59.70459,12.5,-19.238281,53.631592,-1.437378,20.941162,33.895874,30.844116,-49.633789,2.536011,40.515137,-11.755371,37.823486,-11.581421,-57.870483,36.697388,-29.284668,-6.70166
11.520386,29.684448,-14.700317,11.184692,11.566162,66.784668,72.86377,28.186035,-37.979126,-1.461792,-8.657837,-56.048584,-45.114136,2.243042,68.173218,4.376221,58.92334,-50.62561,46.499634,45.492554,20.617676,-18.429565,7.437134,24.981689,-15.429688,-15.145874,44.830322,59.402466,20.498657,54.946899,17.007446,20.617676,-69.152832,22.549438,21.16394,49.325562,-38.644409,-28.097534,35.812378,23.7854,10.879517,26.211548,42.498779,36.676025,16.894531,-13.504028,-49.615479,5.471802,28.271484,36.709595,10.60791,39.248657,48.852539,-48.416138,12.423706,-26.571655,7.809448,-45.797729,-60.174561,-62.564087,18.496704,-53.83606,13.919067,17.62085,24.987793,7.327271,38.024902,26.150513,16.149902,37.319946,22.207642,37.307739,23.120117,-5.169678,-36.959839,-30.825806,-25.714111,46.289063,3.302002,-49.838257,32.910156,12.985229,-59.70459,12.5,-19.238281,53.631592,-4.150391,20.24231,29.629517,31.835938,-49.633789,2.536011,40.713501,-15.301514,37.823486,-11.581421,-57.870483,44.824219,-29.284668,-6.70166
11.520386,23.171997,-14.700317,11.184692,11.566162,66.784668,72.86377,28.186035,-37.979126,-1.461792,-8.657837,-56.048584,-45.114136,-0.689697,67.803955,1.528931,57.177734,-50.62561,46.499634,45.492554,21.313477,-18.429565,7.437134,24.981689,-18.493652,-17.666626,44.830322,59.402466,18.258667,57.63855,17.007446,20.617676,-69.152832,39.547729,16.290283,49.325562,-38.644409,-28.097534,35.812378,23.7854,10.879517,26.211548,38.928223,36.676025,16.894531,5.92041,-51.794434,5.471802,28.271484,36.709595,10.60791,39.248657,48.852539,-48.416138,12.423706,-29.248047,7.809448,-45.797729,-60.174561,-62.564087,18.496704,-53.83606,13.919067,17.62085,29.815674,7.327271,38.024902,25.506592,16.149902,37.319946,21.337891,37.307739,23.120117,-6.210327,-40.316772,-34.326172,-28.527832,46.289063,3.302002,-40.261841,28.900146,31.237793,-63.931274,10.88562,-19.238281,53.631592,-4.150391,20.24231,29.629517,31.835938,-36.517334,-1.065063,40.713501,-15.301514,37.823486,-11.581421,-47.186279,44.824219,-29.284668,-6.70166
10.043335,23.171997,-14.700317,11.184692,21.002197,66.784668,72.86377,28.186035,-37.979126,-4.006958,-11.508179,-56.048584,-45.114136,-0.689697,67.803955,1.528931,57.177734,-50.62561,46.499634,45.492554,21.313477,-22.018433,4.003906,25.189209,-18.493652,-17.666626,41.696167,59.402466,18.258667,57.63855,16.05835,18.374634,-61.273193,39.547729,16.290283,48.358154,-25.488281,-30.981445,35.812378,23.7854,8.233643,24.697876,38.928223,36.676025,16.894531,5.92041,-51.794434,5.471802,28.271484,36.709595,10.60791,39.248657,48.852539,-48.416138,12.765503,-29.248047,7.809448,-45.797729,-60.174561,-62.564087,16.647339,-53.83606,13.919067,16.500854,29.815674,7.327271,34.896851,25.506592,16.149902,37.319946,21.337891,37.307739,23.120117,-6.210327,-40.316772,-34.326172,-28.527832,46.289063,5.892944,-40.261841,28.900146,31.237793,-63.931274,10.88562,-21.902466,51.165771,-4.150391,20.24231,29.629517,31.835938,-36.517334,-1.065063,40.713501,-15.301514,37.823486,-11.581421,-47.186279,44.824219,-29.284668,-6.70166
10.043335,23.171997,-16.986084,9.378052,21.002197,68.969727,72.116089,24.978638,-40.420532,-4.006958,-11.508179,-57.489014,-48.843384,-0.689697,67.803955,1.528931,57.177734,-50.62561,46.499634,39.16626,21.313477,-22.018433,4.003906,25.189209,-18.493652,-17.666626,41.696167,59.402466,18.258667,57.63855,16.05835,18.374634,-61.273193,39.547729,16.290283,48.358154,-25.488281,-30.981445,37.033081,24.081421,8.233643,24.697876,38.928223,47.60437,17.932129,5.92041,-51.794434,5.471802,34.634399,32.4646,28.329468,34.182739,43.972778,-52.29187,12.765503,-29.248047,4.876709,-48.147583,-64.373779,-62.075806,16.647339,-57.901001,11.602783,16.500854,29.815674,7.327271,34.896851,25.506592,13.381958,38.891602,21.337891,35.302734,23.339844,-6.210327,-40.316772,-34.326172,-28.527832,46.289063,5.892944,-40.261841,28.900146,31.237793,-63.931274,10.88562,-21.902466,51.165771,-6.796265,19.232178,26.071167,33.041382,-36.517334,-1.065063,40.713501,-18.780518,38.882446,-13.275146,-47.186279,44.824219,-32.284546,10.720825
10.043335,23.171997,-16.986084,9.378052,21.002197,68.969727,72.116089,24.978638,-40.420532,-4.006958,-11.508179,-57.489014,-48.843384,-3.903198,65.768433,-1.498413,54.11377,-52.096558,40.740967,39.16626,22.357178,-22.018433,4.003906,25.189209,-21.24939,-20.388794,41.696167,58.984375,15.85083,58.630371,16.05835,18.374634,-61.273193,39.547729,11.636353,48.358154,-25.488281,-30.981445,37.033081,24.081421,8.233643,24.697876,35.43396,47.60437,17.932129,23.233032,-53.341675,3.582764,34.634399,32.4646,28.329468,34.182739,43.972778,-52.29187,12.765503,-29.248047,4.876709,-48.147583,-64.373779,-62.075806,16.647339,-57.901001,11.602783,16.500854,32.608032,6.304932,34.896851,24.551392,13.381958,38.891602,20.184326,35.302734,23.339844,-6.591797,-43.203735,-38.320923,-31.439209,44.140625,5.892944,-40.261841,28.900146,44.302368,-67.822266,9.0271,-21.902466,51.165771,-6.796265,19.232178,26.071167,33.041382,-19.671631,-4.644775,40.731812,-18.780518,38.882446,-13.275146,-32.757568,48.419189,-32.284546,10.720825
8.447266,17.666626,-16.986084,9.378052,28.341675,68.969727,72.116089,24.978638,-40.420532,-4.006958,-14.285278,-57.489014,-48.843384,-3.903198,65.768433,-1.498413,54.11377,-52.096558,40.740967,39.16626,22.357178,-25.778198,0.521851,24.932861,-21.24939,-20.388794,41.696167,58.984375,15.85083,58.630371,16.098022,15.820313,-46.685791,51.382446,11.636353,48.358154,-8.752441,-34.100342,37.033081,24.081421,5.279541,23.986816,35.43396,47.60437,17.932129,23.233032,-53.341675,3.582764,34.634399,32.4646,28.329468,34.182739,43.972778,-52.29187,12.765503,-31.512451,4.876709,-48.147583,-64.373779,-62.075806,14.624023,-57.901001,11.602783,15.097046,32.608032,6.304932,32.15332,24.551392,13.381958,38.891602,20.184326,35.302734,23.339844,-6.591797,-43.203735,-38.320923,-31.439209,44.140625,8.853149,-31.582642,25.378418,44.302368,-67.822266,9.0271,-23.919678,48.251343,-6.796265,19.232178,26.071167,33.041382,-19.671631,-4.644775,40.731812,-18.780518,38.882446,-13.275146,-32.757568,48.419189,-32.284546,10.720825
8.447266,17.666626,-19.470215,9.378052,28.341675,68.695068,71.252441,22.293091,-42.608643,-6.796265,-14.285278,-59.432983,-52.23999,-3.903198,65.768433,-1.498413,54.11377,-52.096558,40.740967,39.16626,22.357178,-25.778198,0.521851,24.932861,-21.24939,-20.388794,38.05542,58.984375,15.85083,58.630371,16.098022,15.820313,-46.685791,51.382446,11.636353,46.792603,-8.752441,-34.100342,38.305664,24.56665,5.279541,23.986816,35.43396,53.799438,18.164063,23.233032,-53.341675,3.582764,34.634399,28.408813,41.278076,29.162598,38.729858,-55.517578,12.661743,-31.512451,1.797485,-50.549316,-64.373779,-55.917358,14.624023,-57.901001,9.082031,15.097046,32.608032,6.304932,32.15332,24.551392,10.391235,39.959717,20.184326,35.302734,23.99292,-6.591797,-43.203735,-38.320923,-31.439209,44.140625,8.853149,-31.582642,25.378418,44.302368,-67.822266,9.0271,-23.919678,48.251343,-6.796265,17.871094,23.522949,34.164429,-19.671631,-4.644775,40.731812,-21.923828,40.188599,-15.158081,-32.757568,48.419189,-35.592651,24.789429
8.447266,17.666626,-19.470215,7.376099,28.341675,68.695068,71.252441,22.293091,-42.608643,-6.796265,-14.285278,-59.432983,-52.23999,-7.244873,63.574219,-4.611206,49.685669,-53.549194,34.738159,32.983398,23.21167,-25.778198,0.521851,24.932861,-21.24939,-23.110962,38.05542,58.126831,13.284302,58.724976,16.098022,15.820313,-46.685791,51.382446,11.636353,46.792603,-8.752441,-34.100342,38.305664,24.56665,5.279541,23.986816,32.434082,53.799438,18.164063,36.749268,-54.797363,1.254272,37.719727,28.408813,41.278076,29.162598,38.729858,-55.517578,12.661743,-31.512451,1.797485,-50.549316,-67.962646,-55.917358,14.624023,-61.691284,9.082031,15.097046,34.472656,5.093384,32.15332,23.242188,10.391235,39.959717,18.704224,32.824707,23.99292,-6.591797,-45.86792,-42.611694,-34.65271,41.470337,8.853149,-31.582642,25.378418,44.302368,-68.869019,7.15332,-23.919678,48.251343,-9.368896,17.871094,23.522949,34.164429,-1.553345,-8.224487,40.335083,-21.923828,40.188599,-15.158081,-16.592407,49.118042,-35.592651,24.789429
6.674194,13.656616,-19.470215,7.376099,34.341431,68.695068,71.252441,22.293091,-42.608643,-6.796265,-14.285278,-59.432983,-52.23999,-7.244873,63.574219,-4.611206,49.685669,-53.549194,34.738159,32.983398,23.21167,-25.778198,0.521851,24.026489,-23.703003,-23.110962,38.05542,58.126831,13.284302,58.724976,16.723633,13.128662,-27.005005,58.48999,7.354736,46.792603,-8.752441,-37.191772,38.305664,24.56665,5.279541,23.760986,32.434082,53.799438,18.164063,36.749268,-54.797363,1.254272,37.719727,28.408813,41.278076,29.162598,38.729858,-55.517578,12.661743,-33.615112,1.797485,-50.549316,-67.962646,-55.917358,14.624023,-61.691284,9.082031,15.097046,34.472656,5.093384,30.114746,23.242188,10.391235,39.959717,18.704224,32.824707,23.99292,-6.430054,-45.86792,-42.611694,-34.65271,41.470337,11.779785,-25.039673,22.598267,52.01416,-68.869019,7.15332,-23.919678,44.775391,-9.368896,17.871094,23.522949,34.164429,-1.553345,-8.224487,40.335083,-21.923828,40.188599,-15.158081,-16.592407,49.118042,-35.592651,24.789429
6.674194,13.656616,-22.039795,7.376099,34.341431,68.197632,70.315552,19.952393,-44.906616,-9.857178,-16.903687,-62.954712,-54.718018,-7.244873,63.574219,-4.611206,49.685669,-53.549194,34.738159,32.983398,23.21167,-29.318237,-2.868652,24.026489,-23.703003,-23.110962,33.966064,58.126831,13.284302,58.724976,16.723633,13.128662,-27.005005,58.48999,7.354736,44.625854,8.685303,-37.191772,39.837646,24.768066,2.096558,23.760986,32.434082,56.30188,17.5354,36.749268,-54.797363,1.254272,37.719727,28.408813,49.194336,24.667358,33.508301,-58.288574,12.121582,-33.615112,-1.278687,-53.704834,-67.962646,-55.917358,12.475586,-61.691284,6.326294,13.415527,34.472656,5.093384,30.114746,23.242188,7.229614,40.542603,18.704224,32.824707,23.99292,-6.430054,-45.86792,-42.611694,-34.65271,41.470337,11.779785,-25.039673,22.598267,52.01416,-68.869019,7.15332,-26.086426,44.775391,-9.368896,17.871094,23.522949,34.680176,-1.553345,-8.224487,40.335083,-24.789429,41.522217,-17.279053,-16.592407,49.118042,-38.989258,34.399414
6.674194,13.656616,-22.039795,5.154419,34.341431,68.197632,70.315552,19.952393,-44.906616,-9.857178,-16.903687,-62.954712,-54.718018,-7.244873,61.605835,-7.775879,44.335938,-56.350708,28.97644,27.301025,23.21167,-29.318237,-2.868652,24.026489,-23.703003,-25.527954,33.966064,56.848145,13.284302,58.148193,16.723633,13.128662,-27.005005,58.48999,7.354736,44.625854,8.685303,-37.191772,39.837646,24.768066,2.096558,23.760986,30.206299,56.30188,17.5354,45.983887,-57.086182,-1.5625,38.571167,24.853516,49.194336,24.667358,33.508301,-58.288574,12.121582,-33.615112,-1.278687,-53.704834,-68.988037,-43.386841,12.475586,-63.418579,6.326294,13.415527,35.995483,3.787231,30.114746,21.725464,7.229614,40.542603,16.912842,30.154419,24.716187,-6.430054,-48.800659,-46.783447,-38.098145,38.458252,11.779785,-25.039673,22.598267,52.01416,-68.869019,5.355835,-26.086426,44.775391,-12.139893,16.323853,21.908569,34.680176,15.112305,-11.846924,39.215088,-24.789429,41.522217,-17.279053,-1.239014,48.48938,-38.989258,34.399414
4.510498,11.38916,-22.039795,5.154419,34.341431,68.197632,70.315552,19.952393,-44.906616,-9.857178,-16.903687,-62.954712,-54.718018,-10.549927,61.605835,-7.775879,44.335938,-56.350708,28.97644,27.301025,23.233032,-29.318237,-2.868652,24.026489,-26.080322,-25.527954,33.966064,56.848145,10.461426,58.148193,17.46521,10.372925,-5.325317,62.10022,3.570557,44.625854,8.685303,-39.981079,39.837646,24.768066,2.096558,23.760986,30.206299,56.30188,17.5354,45.983887,-57.086182,-1.5625,38.571167,24.853516,49.194336,24.667358,33.508301,-58.288574,12.121582,-36.245728,-1.278687,-53.704834,-68.988037,-43.386841,12.475586,-63.418579,6.326294,13.415527,35.995483,3.787231,29.016113,21.725464,7.229614,40.542603,16.912842,30.154419,24.716187,-5.944824,-48.800659,-46.783447,-38.098145,38.458252,14.263916,-20.812988,20.559692,55.609131,-64.425659,5.355835,-26.086426,44.775391,-12.139893,16.323853,21.908569,34.680176,15.112305,-11.846924,39.215088,-24.789429,41.522217,-17.279053,-1.239014,48.48938,-38.989258,34.399414
4.510498,11.38916,-24.588013,5.154419,39.065552,68.197632,68.585205,17.697144,-47.653198,-12.994385,-19.458008,-62.954712,-56.384277,-10.549927,61.605835,-7.775879,44.335938,-56.350708,28.97644,27.301025,23.233032,-32.601929,-5.999756,22.381592,-26.080322,-25.527954,29.730225,56.848145,10.461426,58.148193,17.46521,10.372925,-5.325317,62.10022,3.570557,42.092896,23.812866,-39.981079,41.394043,24.429321,-1.196289,23.648071,30.206299,56.539917,16.073608,45.983887,-57.086182,-1.5625,38.571167,24.853516,49.194336,24.667358,28.820801,-61.31897,11.273193,-36.245728,-4.351807,-57.754517,-68.988037,-43.386841,10.464478,-63.418579,3.311157,11.621094,35.995483,3.787231,29.016113,21.725464,4.025269,40.557861,16.912842,30.154419,24.716187,-5.944824,-48.800659,-46.783447,-38.098145,38.458252,14.263916,-20.812988,20.559692,55.609131,-64.425659,5.355835,-29.315186,40.756226,-12.139893,16.323853,21.908569,34.680176,15.112305,-11.846924,39.215088,-24.789429,42.251587,-19.482422,-1.239014,48.48938,-41.976929,39.782715
4.510498,11.38916,-24.588013,2.603149,39.065552,68.179321,68.585205,17.697144,-47.653198,-12.994385,-19.458008,-67.886353,-56.384277,-10.549927,61.605835,-7.775879,38.537598,-61.00769,24.023438,22.558594,23.233032,-32.601929,-5.999756,22.381592,-26.080322,-27.624512,29.730225,55.053711,10.461426,56.890869,17.46521,10.372925,-5.325317,62.10022,3.570557,42.092896,23.812866,-39.981079,41.394043,24.429321,-1.196289,23.648071,30.206299,56.539917,16.073608,45.983887,-60.629272,-4.821777,38.412476,22.070313,52.993774,21.118164,28.820801,-61.31897,11.273193,-36.245728,-4.351807,-57.754517,-65.615845,-25.527954,10.464478,-61.050415,3.311157,11.621094,35.995483,2.255249,29.016113,21.725464,4.025269,40.557861,14.828491,27.627563,25.210571,-5.944824,-48.800659,-46.783447,-41.497803,35.516357,14.263916,-20.812988,20.559692,55.609131,-64.425659,5.355835,-29.315186,40.756226,-15.158081,14.602661,20.999146,34.567261,28.540039,-15.774536,37.490845,-27.612305,42.251587,-19.482422,11.273193,47.280884,-41.976929,39.782715
1.742554,10.745239,-24.588013,2.603149,39.065552,68.179321,68.585205,17.697144,-47.653198,-12.994385,-19.458008,-67.886353,-56.384277,-13.55896,59.359741,-10.900879,38.537598,-61.00769,24.023438,22.558594,22.354126,-32.601929,-5.999756,22.381592,-28.775024,-27.624512,29.730225,55.053711,7.363892,56.890869,17.46521,7.629395,14.770508,63.638306,0.543213,42.092896,23.812866,-39.981079,41.394043,24.429321,-1.196289,23.648071,28.851318,56.539917,16.073608,51.516724,-60.629272,-4.821777,38.412476,22.070313,52.993774,21.118164,28.820801,-61.31897,11.273193,-39.697266,-4.351807,-57.754517,-65.615845,-25.527954,10.464478,-61.050415,3.311157,11.621094,37.359619,2.255249,28.656006,20.001221,4.025269,40.557861,14.828491,27.627563,25.210571,-5.53894,-52.508545,-50.421143,-41.497803,35.516357,16.186523,-18.435669,19.100952,56.765747,-52.886963,3.445435,-29.315186,40.756226,-15.158081,14.602661,20.999146,34.567261,28.540039,-15.774536,37.490845,-27.612305,42.251587,-19.482422,11.273193,47.280884,-41.976929,39.782715
1.742554,10.745239,-27.029419,2.603149,42.96875,68.179321,68.585205,15.234375,-50.793457,-15.975952,-22.085571,-67.886353,-56.384277,-13.55896,59.359741,-10.900879,38.537598,-61.00769,24.023438,22.558594,22.354126,-35.65979,-9.100342,20.269775,-28.775024,-27.624512,25.775146,55.053711,7.363892,56.890869,17.834473,7.629395,14.770508,63.638306,0.543213,39.34021,34.689331,-42.279053,41.394043,23.477173,-4.391479,23.272705,28.851318,56.539917,16.073608,51.516724,-60.629272,-4.821777,38.412476,22.070313,52.993774,21.118164,28.820801,-65.234375,10.116577,-39.697266,-4.351807,-62.039185,-65.615845,-25.527954,8.615112,-61.050415,3.311157,9.793091,37.359619,2.255249,28.656006,20.001221,0.848389,39.990234,14.828491,27.627563,25.210571,-5.53894,-52.508545,-50.421143,-41.497803,35.516357,16.186523,-18.435669,19.100952,56.765747,-52.886963,3.445435,-33.712769,36.242676,-15.158081,14.602661,20.999146,34.567261,28.540039,-15.774536,37.490845,-27.612305,41.998291,-21.612549,11.273193,47.280884,-44.247437,42.193604
1.742554,10.745239,-27.029419,-0.460815,42.96875,67.971802,65.396118,15.234375,-50.793457,-15.975952,-22.085571,-72.32666,-58.023071,-13.55896,59.359741,-10.900879,38.537598,-66.491699,20.559692,19.082642,22.354126,-35.65979,-9.100342,20.269775,-28.775024,-27.624512,25.775146,52.682495,7.363892,56.890869,17.834473,7.629395,14.770508,63.638306,0.543213,39.34021,34.689331,-42.279053,42.510986,23.477173,-4.391479,23.272705,28.851318,55.639648,14.050293,51.516724,-60.629272,-8.081055,37.854004,20.233154,53.991699,18.75,25.067139,-65.234375,10.116577,-39.697266,-7.342529,-62.039185,-56.396484,-4.943848,8.615112,-53.366089,0.149536,9.793091,37.359619,0.384521,28.656006,20.001221,0.848389,39.990234,14.828491,25.62561,25.250244,-5.53894,-52.508545,-50.421143,-41.497803,33.02002,16.186523,-18.435669,19.100952,56.765747,-52.886963,3.445435,-33.712769,36.242676,-18.481445,12.771606,20.288086,33.862305,28.540039,-15.774536,35.162354,-30.731201,41.998291,-21.612549,11.273193,45.675659,-44.247437,42.193604
1.742554,11.154175,-27.029419,-0.460815,42.96875,67.971802,65.396118,15.234375,-50.793457,-15.975952,-22.085571,-72.32666,-58.023071,-16.268921,56.341553,-14.108276,32.894897,-66.491699,20.559692,19.082642,20.709229,-35.65979,-9.100342,20.269775,-31.921387,-29.56543,25.775146,52.682495,4.000854,54.879761,17.834473,7.629395,14.770508,64.059448,-1.538086,39.34021,34.689331,-42.279053,42.510986,23.477173,-4.391479,23.272705,28.152466,55.639648,14.050293,54.260254,-64.807129,-8.081055,37.854004,20.233154,53.991699,18.75,25.067139,-65.234375,10.116577,-43.756104,-7.342529,-62.039185,-56.396484,-4.943848,8.615112,-53.366089,0.149536,9.793091,38.439941,0.384521,28.656006,18.148804,0.848389,39.990234,12.545776,25.62561,25.250244,-5.578613,-56.936646,-53.540039,-44.47937,33.02002,16.186523,-17.163086,17.91687,56.845093,-34.689331,1.23291,-33.712769,36.242676,-18.481445,12.771606,20.288086,33.862305,37.973022,-19.970703,35.162354,-30.731201,41.998291,-21.612549,19.985962,45.675659,-44.247437,42.193604
-1.596069,11.154175,-27.029419,-0.460815,46.127319,67.971802,65.396118,15.234375,-50.793457,-18.615723,-24.902344,-72.32666,-58.023071,-16.268921,56.341553,-14.108276,32.894897,-66.491699,20.559692,19.082642,20.709229,-38.919067,-12.243652,17.868042,-31.921387,-29.56543,22.622681,52.682495,4.000854,54.879761,17.578125,4.803467,30.569458,64.059448,-1.538086,36.38916,40.90271,-44.30542,42.510986,23.477173,-7.406616,22.494507,28.152466,55.639648,14.050293,54.260254,-64.807129,-8.081055,37.854004,20.233154,53.991699,18.75,25.067139,-65.234375,8.618164,-43.756104,-7.342529,-62.039185,-56.396484,-4.943848,7.266235,-53.366089,0.149536,8.004761,38.439941,0.384521,28.69873,18.148804,0.848389,39.990234,12.545776,25.62561,25.250244,-5.578613,-56.936646,-53.540039,-44.47937,33.02002,17.440796,-17.163086,17.91687,56.845093,-34.689331,1.23291,-38.494873,31.658936,-18.481445,12.771606,20.288086,33.862305,37.973022,-19.970703,35.162354,-30.731201,41.998291,-21.612549,19.985962,45.675659,-44.247437,42.193604
-1.596069,11.154175,-29.162598,-3.942871,46.127319,66.525269,60.592651,12.42981,-53.921509,-18.615723,-24.902344,-72.93396,-60.696411,-16.268921,56.341553,-14.108276,32.894897,-66.491699,20.559692,17.218018,20.709229,-38.919067,-12.243652,17.868042,-31.921387,-29.56543,22.622681,52.682495,4.000854,54.879761,17.578125,4.803467,30.569458,64.059448,-1.538086,36.38916,40.90271,-44.30542,42.947388,22.079468,-7.406616,22.494507,28.152466,54.211426,11.773682,54.260254,-64.807129,-8.081055,37.069702,19.207764,53.384399,17.385864,22.476196,-69.888306,8.618164,-43.756104,-10.379028,-64.718628,-41.534424,15.197754,7.266235,-40.41748,-3.051758,8.004761,38.439941,0.384521,28.69873,18.148804,-2.249146,38.830566,12.545776,24.307251,24.810791,-5.578613,-56.936646,-53.540039,-44.47937,33.02002,17.440796,-17.163086,17.91687,56.845093,-34.689331,1.23291,-38.494873,31.658936,-21.826172,10.696411,19.439697,32.849121,37.973022,-19.970703,35.162354,-34.286499,40.753174,-23.562622,19.985962,45.675659,-45.913696,43.096924
-1.596069,11.154175,-29.162598,-3.942871,46.127319,66.525269,60.592651,12.42981,-53.921509,-18.615723,-24.902344,-72.93396,-60.696411,-18.811035,52.270508,-17.446899,27.835083,-69.845581,18.765259,17.218018,18.826294,-38.919067,-12.243652,17.868042,-35.345459,-31.735229,22.622681,49.82605,0.537109,52.206421,17.578125,4.803467,30.569458,64.059448,-2.600098,36.38916,40.90271,-44.30542,42.947388,22.079468,-7.406616,22.494507,27.816772,54.211426,11.773682,55.044556,-67.648315,-11.099243,37.069702,19.207764,53.384399,17.385864,22.476196,-69.888306,8.618164,-43.756104,-10.379028,-64.718628,-41.534424,15.197754,7.266235,-40.41748,-3.051758,8.004761,39.105225,-2.050781,28.69873,16.094971,-2.249146,38.830566,10.128784,24.307251,24.810791,-6.362915,-61.248779,-56.564331,-46.987915,31.271362,17.440796,-17.163086,17.91687,56.420898,-12.280273,-1.455688,-38.494873,31.658936,-21.826172,10.696411,19.439697,32.849121,43.942261,-24.37439,32.443237,-34.286499,40.753174,-23.562622,25.27771,43.353271,-45.913696,43.096924
-5.267334,11.8927,-29.162598,-3.942871,48.193359,66.525269,60.592651,12.42981,-53.921509,-18.615723,-27.853394,-72.93396,-60.696411,-18.811035,52.270508,-17.446899,27.835083,-69.845581,18.765259,17.218018,18.826294,-42.483521,-15.634155,15.463257,-35.345459,-31.735229,22.622681,49.82605,0.537109,52.206421,16.583252,1.904297,40.887451,63.821411,-2.600098,36.38916,43.478394,-46.524048,42.947388,22.079468,-10.229492,21.316528,27.816772,54.211426,11.773682,55.044556,-67.648315,-11.099243,37.069702,19.207764,53.384399,17.385864,22.476196,-69.888306,8.618164,-47.106934,-10.379028,-64.718628,-41.534424,15.197754,6.491089,-40.41748,-3.051758,6.170654,39.105225,-2.050781,28.668213,16.094971,-2.249146,38.830566,10.128784,24.307251,24.810791,-6.362915,-61.248779,-56.564331,-46.987915,31.271362,18.12439,-16.433716,16.726685,56.420898,-12.280273,-1.455688,-42.245483,27.468872,-21.826172,10.696411,19.439697,32.849121,43.942261,-24.37439,32.443237,-34.286499,40.753174,-23.562622,25.27771,43.353271,-45.913696,43.096924
-5.267334,11.8927,-31.326294,-3.942871,48.193359,63.208008,54.6875,9.246826,-56.52771,-20.941162,-27.853394,-66.397095,-64.724731,-18.811035,52.270508,-17.446899,27.835083,-69.845581,18.765259,17.218018,18.826294,-42.483521,-15.634155,15.463257,-35.345459,-31.735229,20.596313,49.82605,0.537109,52.206421,16.583252,1.904297,40.887451,63.821411,-2.600098,33.151245,43.478394,-46.524048,42.559814,20.376587,-10.229492,21.316528,27.816772,52.371216,9.686279,55.044556,-67.648315,-11.099243,37.069702,18.67981,51.77002,16.638184,20.9198,-73.675537,6.692505,-47.106934,-13.427734,-63.555908,-41.534424,32.171631,6.491089,-40.41748,-6.140137,6.170654,39.105225,-2.050781,28.668213,16.094971,-5.349731,37.161255,10.128784,24.307251,23.931885,-6.362915,-61.248779,-56.564331,-46.987915,31.271362,18.12439,-16.433716,16.726685,56.420898,-12.280273,-1.455688,-42.245483,27.468872,-21.826172,8.36792,18.157959,31.494141,43.942261,-24.37439,32.443237,-38.088989,38.858032,-25.457764,25.27771,43.353271,-47.634888,43.606567
-5.267334,11.8927,-31.326294,-7.632446,48.193359,63.208008,54.6875,9.246826,-56.52771,-20.941162,-27.853394,-66.397095,-64.724731,-21.548462,47.396851,-21.008301,23.840332,-67.373657,18.359375,16.873169,16.96167,-42.483521,-15.634155,15.463257,-35.345459,-34.335327,20.596313,46.591187,-2.874756,49.008179,16.583252,1.904297,40.887451,63.821411,-2.600098,33.151245,43.478394,-46.524048,42.559814,20.376587,-10.229492,21.316528,27.496338,52.371216,9.686279,54.312134,-66.638184,-13.632202,35.748291,18.67981,51.77002,16.638184,20.9198,-73.675537,6.692505,-47.106934,-13.427734,-63.555908,-22.686768,32.171631,6.491089,-23.956299,-6.140137,6.170654,39.21814,-4.983521,28.668213,13.861084,-5.349731,37.161255,7.63855,23.626709,23.931885,-6.362915,-63.751221,-60.180664,-49.362183,30.239868,18.12439,-16.433716,16.726685,56.420898,10.635376,-4.501343,-42.245483,27.468872,-25.015259,8.36792,18.157959,31.494141,47.323608,-28.607178,29.28772,-38.088989,38.858032,-25.457764,28.253174,40.213013,-47.634888,43.606567
-8.895874,12.27417,-31.326294,-7.632446,48.754883,63.208008,54.6875,9.246826,-56.52771,-20.941162,-27.853394,-66.397095,-64.724731,-21.548462,47.396851,-21.008301,23.840332,-67.373657,18.359375,16.873169,16.96167,-42.483521,-15.634155,13.040161,-38.534546,-34.335327,20.596313,46.591187,-2.874756,49.008179,14.953613,-1.068115,46.212769,62.942505,-2.883911,33.151245,43.478394,-49.468994,42.559814,20.376587,-10.229492,19.882202,27.496338,52.371216,9.686279,54.312134,-66.638184,-13.632202,35.748291,18.67981,51.77002,16.638184,20.9198,-73.675537,6.692505,-47.967529,-13.427734,-63.555908,-22.686768,32.171631,6.491089,-23.956299,-6.140137,6.170654,39.21814,-4.983521,28.317261,13.861084,-5.349731,37.161255,7.63855,23.626709,23.931885,-7.849121,-63.751221,-60.180664,-49.362183,30.239868,18.276978,-15.759277,15.283203,55.480957,10.635376,-4.501343,-42.245483,24.169922,-25.015259,8.36792,18.157959,31.494141,47.323608,-28.607178,29.28772,-38.088989,38.858032,-25.457764,28.253174,40.213013,-47.634888,43.606567
-8.895874,12.27417,-33.856201,-7.632446,48.754883,58.285522,48.443604,5.764771,-58.47168,-23.110962,-30.792236,-50.964355,-68.939209,-21.548462,47.396851,-21.008301,23.840332,-67.373657,18.359375,16.873169,16.96167,-46.405029,-19.073486,13.040161,-38.534546,-34.335327,19.732666,46.591187,-2.874756,49.008179,14.953613,-1.068115,46.212769,62.942505,-2.883911,29.696655,44.030762,-49.468994,41.445923,18.493652,-13.027954,19.882202,27.496338,50.131226,8.14209,54.312134,-66.638184,-13.632202,35.748291,18.67981,49.334717,16.000366,20.062256,-74.563599,4.394531,-47.967529,-16.574097,-56.530762,-22.686768,32.171631,6.42395,-23.956299,-9.118652,4.251099,39.21814,-4.983521,28.317261,13.861084,-8.520508,35.028076,7.63855,23.626709,23.931885,-7.849121,-63.751221,-60.180664,-49.362183,30.239868,18.276978,-15.759277,15.283203,55.480957,10.635376,-4.501343,-44.20166,24.169922,-25.015259,8.36792,18.157959,29.882813,47.323608,-28.607178,29.28772,-41.638184,36.61499,-27.456665,28.253174,40.213013,-50.152588,44.125366
-8.895874,12.27417,-33.856201,-11.181641,48.754883,58.285522,48.443604,5.764771,-58.47168,-23.110962,-30.792236,-50.964355,-68.939209,-21.548462,41.995239,-24.578857,21.130371,-56.185913,18.469238,17.626953,16.96167,-46.405029,-19.073486,13.040161,-38.534546,-37.27417,19.732666,43.066406,-2.874756,45.501709,14.953613,-1.068115,46.212769,62.942505,-2.883911,29.696655,44.030762,-49.468994,41.445923,18.493652,-13.027954,19.882202,26.998901,50.131226,8.14209,52.276611,-59.417725,-15.914917,33.779907,18.127441,49.334717,16.000366,20.062256,-74.563599,4.394531,-47.967529,-16.574097,-56.530762,-2.740479,44.616699,6.42395,-6.585693,-9.118652,4.251099,38.766479,-8.276367,28.317261,11.355591,-8.520508,35.028076,5.053711,23.31543,22.720337,-7.849121,-62.548828,-64.614868,-52.270508,29.696655,18.276978,-15.759277,15.283203,55.480957,10.635376,-7.687378,-44.20166,24.169922,-27.786255,5.664063,16.519165,29.882813,49.215698,-32.559204,25.909424,-41.638184,36.61499,-27.456665,30.236816,36.257935,-50.152588,44.125366
-12.271118,11.993408,-33.856201,-11.181641,48.754883,58.285522,48.443604,5.764771,-58.47168,-23.110962,-30.792236,-50.964355,-68.939209,-24.612427,41.995239,-24.578857,21.130371,-56.185913,18.469238,17.626953,15.203857,-46.405029,-19.073486,13.040161,-41.061401,-37.27417,19.732666,43.066406,-6.082153,45.501709,12.802124,-4.000854,47.988892,61.355591,-2.832031,29.696655,44.030762,-53.091431,41.445923,18.493652,-13.027954,19.882202,26.998901,50.131226,8.14209,52.276611,-59.417725,-15.914917,33.779907,18.127441,49.334717,16.000366,20.062256,-74.563599,4.394531,-44.47937,-16.574097,-56.530762,-2.740479,44.616699,6.42395,-6.585693,-9.118652,4.251099,38.766479,-8.276367,27.5177,11.355591,-8.520508,35.028076,5.053711,23.31543,22.720337,-9.887695,-62.548828,-64.614868,-52.270508,29.696655,18.115234,-14.553833,13.528442,53.707886,30.57251,-7.687378,-44.20166,24.169922,-27.786255,5.664063,16.519165,29.882813,49.215698,-32.559204,25.909424,-41.638184,36.61499,-27.456665,30.236816,36.257935,-50.152588,44.125366
-12.271118,11.993408,-36.843872,-11.181641,47.634888,58.285522,42.526245,2.056885,-60.110474,-25.366211,-33.526611,-50.964355,-70.626831,-24.612427,41.995239,-24.578857,21.130371,-56.185913,18.469238,17.626953,15.203857,-50.164795,-22.467041,10.604858,-41.061401,-37.27417,19.665527,43.066406,-6.082153,45.501709,12.802124,-4.000854,47.988892,61.355591,-2.832031,26.312256,44.064331,-53.091431,39.651489,16.363525,-15.963745,18.304443,26.998901,47.479248,7.385254,52.276611,-59.417725,-15.914917,33.779907,18.127441,49.334717,16.000366,19.430542,-70.251465,1.831055,-44.47937,-19.665527,-43.063354,-2.740479,44.616699,6.765747,-6.585693,-12.063599,2.236938,38.766479,-8.276367,27.5177,11.355591,-11.853027,32.620239,5.053711,23.31543,22.720337,-9.887695,-62.548828,-64.614868,-52.270508,29.696655,18.115234,-14.553833,13.528442,53.707886,30.57251,-7.687378,-44.851685,21.878052,-27.786255,5.664063,16.519165,29.882813,49.215698,-32.559204,25.909424,-41.638184,34.222412,-29.745483,30.236816,36.257935,-53.701782,44.570923
-12.271118,11.993408,-36.843872,-14.505005,47.634888,52.56958,42.526245,2.056885,-60.110474,-25.366211,-33.526611,-27.661133,-70.626831,-24.612427,41.995239,-24.578857,19.787598,-35.983276,18.286133,18.588257,15.203857,-50.164795,-22.467041,10.604858,-41.061401,-40.078735,19.665527,39.291382,-6.082153,41.80603,12.802124,-4.000854,47.988892,61.355591,-2.832031,26.312256,44.064331,-53.091431,39.651489,16.363525,-15.963745,18.304443,26.998901,47.479248,7.385254,52.276611,-45.269775,-18.182373,31.069946,17.196655,45.97168,15.161133,19.430542,-70.251465,1.831055,-44.47937,-19.665527,-43.063354,15.518188,52.575684,6.765747,8.914185,-12.063599,2.236938,38.766479,-11.593628,27.5177,11.355591,-11.853027,32.620239,2.386475,23.092651,21.188354,-9.887695,-62.548828,-64.614868,-56.130981,29.269409,18.115234,-14.553833,13.528442,53.707886,30.57251,-7.687378,-44.851685,21.878052,-30.340576,2.697754,14.611816,27.896118,50.12207,-36.221313,22.503662,-44.613647,34.222412,-29.745483,32.061768,31.790161,-53.701782,44.570923
-15.41748,11.071777,-36.843872,-14.505005,47.634888,52.56958,42.526245,2.056885,-60.110474,-25.366211,-33.526611,-27.661133,-70.626831,-27.984619,36.398315,-27.926636,19.787598,-35.983276,18.286133,18.588257,13.17749,-50.164795,-22.467041,10.604858,-42.89856,-40.078735,19.665527,39.291382,-9.115601,41.80603,12.802124,-6.863403,47.857666,58.990479,-2.981567,26.312256,44.064331,-53.091431,39.651489,16.363525,-15.963745,18.304443,26.223755,47.479248,7.385254,49.041748,-45.269775,-18.182373,31.069946,17.196655,45.97168,15.161133,19.430542,-70.251465,1.831055,-35.931396,-19.665527,-43.063354,15.518188,52.575684,6.765747,8.914185,-12.063599,2.236938,37.652588,-11.593628,26.44043,8.666992,-11.853027,32.620239,2.386475,23.092651,21.188354,-12.17041,-56.182861,-69.20166,-56.130981,29.269409,17.767334,-11.785889,11.434937,50.970459,45.352173,-10.736084,-44.851685,21.878052,-30.340576,2.697754,14.611816,27.896118,50.12207,-36.221313,22.503662,-44.613647,34.222412,-29.745483,32.061768,31.790161,-53.701782,44.570923
-15.41748,11.071777,-39.941406,-14.505005,45.108032,52.56958,42.526245,-1.785278,-62.112427,-27.767944,-36.05957,-27.661133,-70.626831,-27.984619,36.398315,-27.926636,19.787598,-35.983276,18.286133,18.588257,13.17749,-53.448486,-25.592041,7.940674,-42.89856,-40.078735,19.915771,39.291382,-9.115601,41.80603,10.263062,-6.863403,47.857666,58.990479,-2.981567,23.538208,44.274902,-56.616211,39.651489,13.879395,-19.134521,16.653442,26.223755,47.479248,7.385254,49.041748,-45.269775,-18.182373,31.069946,17.196655,45.97168,15.161133,19.430542,-59.130859,-0.83313,-35.931396,-19.665527,-24.179077,15.518188,52.575684,7.272339,8.914185,-12.063599,0.256348,37.652588,-11.593628,26.44043,8.666992,-15.280151,30.157471,2.386475,23.092651,21.188354,-12.17041,-56.182861,-69.20166,-56.130981,29.269409,17.767334,-11.785889,11.434937,50.970459,45.352173,-10.736084,-46.002197,20.507813,-30.340576,2.697754,14.611816,27.896118,50.12207,-36.221313,22.503662,-44.613647,31.619263,-32.241821,32.061768,31.790161,-57.336426,44.522095
-15.41748,11.071777,-39.941406,-17.651367,45.108032,46.97876,37.225342,-1.785278,-62.112427,-27.767944,-36.05957,-0.12207,-66.494751,-27.984619,36.398315,-27.926636,19.787598,-9.411621,17.242432,18.972778,13.17749,-53.448486,-25.592041,7.940674,-42.89856,-40.078735,19.915771,35.437012,-9.115601,41.80603,10.263062,-6.863403,47.857666,58.990479,-2.981567,23.538208,44.274902,-56.616211,37.304688,13.879395,-19.134521,16.653442,26.223755,44.546509,7.321167,49.041748,-45.269775,-20.739746,27.957153,15.686035,41.674805,14.004517,18.655396,-59.130859,-0.83313,-35.931396,-22.680664,-24.179077,29.96521,57.141113,7.272339,20.840454,-15.130615,0.256348,37.652588,-14.794922,26.44043,8.666992,-15.280151,30.157471,2.386475,22.698975,19.37561,-12.17041,-56.182861,-69.20166,-56.130981,28.692627,17.767334,-11.785889,11.434937,50.970459,45.352173,-10.736084,-46.002197,20.507813,-32.873535,-0.463867,12.664795,25.863647,50.12207,-36.221313,19.598389,-46.920776,31.619263,-32.241821,32.061768,27.020264,-57.336426,44.522095
-15.41748,9.75647,-39.941406,-17.651367,45.108032,46.97876,37.225342,-1.785278,-62.112427,-27.767944,-36.05957,-0.12207,-66.494751,-31.292725,30.709839,-30.801392,19.448853,-9.411621,17.242432,18.972778,10.662842,-53.448486,-25.592041,7.940674,-44.60144,-42.330933,19.915771,35.437012,-12.078857,38.116455,10.263062,-6.863403,47.857666,55.926514,-3.665161,23.538208,44.274902,-56.616211,37.304688,13.879395,-19.134521,16.653442,25.180054,44.546509,7.321167,44.885254,-25.454712,-20.739746,27.957153,15.686035,41.674805,14.004517,18.655396,-59.130859,-0.83313,-22.906494,-22.680664,-24.179077,29.96521,57.141113,7.272339,20.840454,-15.130615,0.256348,35.900879,-14.794922,26.44043,5.813599,-15.280151,30.157471,-0.378418,22.698975,19.37561,-14.587402,-44.421387,-72.024536,-60.610962,28.692627,17.767334,-6.295776,9.118652,47.344971,54.672241,-13.571167,-46.002197,20.507813,-32.873535,-0.463867,12.664795,25.863647,50.3479,-39.987183,19.598389,-46.920776,31.619263,-32.241821,33.999634,27.020264,-57.336426,44.522095
-18.588257,9.75647,-39.941406,-17.651367,41.769409,46.97876,37.225342,-1.785278,-62.112427,-30.24292,-38.516235,-0.12207,-66.494751,-31.292725,30.709839,-30.801392,19.448853,-9.411621,17.242432,18.972778,10.662842,-56.069946,-28.601074,5.01709,-44.60144,-42.330933,19.976807,35.437012,-12.078857,38.116455,7.415771,-9.664917,46.957397,55.926514,-3.665161,21.786499,44.692993,-58.407593,37.304688,13.879395,-22.473145,14.865112,25.180054,44.546509,7.321167,44.885254,-25.454712,-20.739746,27.957153,15.686035,41.674805,14.004517,18.655396,-59.130859,-3.591919,-22.906494,-22.680664,-24.179077,29.96521,57.141113,7.470703,20.840454,-15.130615,-1.611328,35.900879,-14.794922,25.143433,5.813599,-15.280151,30.157471,-0.378418,22.698975,19.37561,-14.587402,-44.421387,-72.024536,-60.610962,28.692627,17.486572,-6.295776,9.118652,47.344971,54.672241,-13.571167,-49.398804,19.668579,-32.873535,-0.463867,12.664795,25.863647,50.3479,-39.987183,19.598389,-46.920776,31.619263,-32.241821,33.999634,27.020264,-57.336426,44.522095
-18.588257,9.75647,-42.614746,-20.892334,41.769409,42.022705,32.528687,-5.69458,-64.685059,-30.24292,-38.516235,26.638794,-54.11377,-31.292725,30.709839,-30.801392,19.448853,-9.411621,17.242432,18.225098,10.662842,-56.069946,-28.601074,5.01709,-44.60144,-42.330933,19.976807,35.437012,-12.078857,38.116455,7.415771,-9.664917,46.957397,55.926514,-3.665161,21.786499,44.692993,-58.407593,34.558105,10.940552,-22.473145,14.865112,25.180054,41.40625,7.684326,44.885254,-25.454712,-20.739746,24.645996,13.687134,36.581421,12.619019,17.520142,-41.372681,-3.591919,-22.906494,-25.509644,-2.508545,40.008545,59.649658,7.470703,28.671265,-18.353271,-1.611328,35.900879,-14.794922,25.143433,5.813599,-18.707275,27.96936,-0.378418,22.058105,17.266846,-14.587402,-44.421387,-72.024536,-60.610962,28.692627,17.486572,-6.295776,9.118652,47.344971,54.672241,-13.571167,-49.398804,19.668579,-35.766602,-3.573608,10.681152,24.032593,50.3479,-39.987183,19.598389,-49.139404,28.875732,-34.75647,33.999634,27.020264,-59.060669,43.719482
-18.588257,9.75647,-42.614746,-20.892334,41.769409,42.022705,32.528687,-5.69458,-64.685059,-30.24292,-38.516235,26.638794,-54.11377,-34.301758,25.198364,-33.331299,19.622803,18.563843,15.441895,18.225098,7.485962,-56.069946,-28.601074,5.01709,-46.902466,-43.930054,19.976807,31.774902,-15.188599,34.619141,7.415771,-9.664917,46.957397,55.926514,-4.986572,21.786499,44.692993,-58.407593,34.558105,10.940552,-22.473145,14.865112,23.843384,41.40625,7.684326,40.103149,-3.097534,-23.468018,24.645996,13.687134,36.581421,12.619019,17.520142,-41.372681,-3.591919,-22.906494,-25.509644,-2.508545,40.008545,59.649658,7.470703,28.671265,-18.353271,-1.611328,33.560181,-17.86499,25.143433,2.999878,-18.707275,27.96936,-3.137207,22.058105,17.266846,-17.147827,-28.387451,-70.898438,-64.273071,27.813721,17.486572,-6.295776,9.118652,43.127441,59.661865,-16.287231,-49.398804,19.668579,-35.766602,-3.573608,10.681152,24.032593,49.807739,-44.088745,17.504883,-49.139404,28.875732,-34.75647,35.797119,22.198486,-59.060669,43.719482
-22.006226,8.242798,-42.614746,-20.892334,38.323975,42.022705,32.528687,-5.69458,-64.685059,-30.24292,-41.134644,26.638794,-54.11377,-34.301758,25.198364,-33.331299,19.622803,18.563843,15.441895,18.225098,7.485962,-58.569336,-31.619263,1.773071,-46.902466,-43.930054,19.976807,31.774902,-15.188599,34.619141,4.351807,-12.576294,45.803833,52.218628,-4.986572,21.786499,44.854736,-56.671143,34.558105,10.940552,-25.808716,12.887573,23.843384,41.40625,7.684326,40.103149,-3.097534,-23.468018,24.645996,13.687134,36.581421,12.619019,17.520142,-41.372681,-3.591919,-7.571411,-25.509644,-2.508545,40.008545,59.649658,7.290649,28.671265,-18.353271,-3.326416,33.560181,-17.86499,23.733521,2.999878,-18.707275,27.96936,-3.137207,22.058105,17.266846,-17.147827,-28.387451,-70.898438,-64.273071,27.813721,17.263794,2.783203,6.652832,43.127441,59.661865,-16.287231,-55.331421,19.119263,-35.766602,-3.573608,10.681152,24.032593,49.807739,-44.088745,17.504883,-49.139404,28.875732,-34.75647,35.797119,22.198486,-59.060669,43.719482
-22.006226,8.242798,-44.47937,-20.892334,38.323975,37.817383,28.262329,-9.53064,-67.025757,-32.531738,-41.134644,48.21167,-33.428955,-34.301758,25.198364,-33.331299,19.622803,18.563843,15.441895,18.225098,7.485962,-58.569336,-31.619263,1.773071,-46.902466,-43.930054,19.628906,31.774902,-15.188599,34.619141,4.351807,-12.576294,45.803833,52.218628,-4.986572,21.203613,44.854736,-56.671143,31.771851,7.620239,-25.808716,12.887573,23.843384,38.104248,8.004761,40.103149,-3.097534,-23.468018,24.645996,11.367798,31.04248,11.032104,16.043091,-19.198608,-6.488037,-7.571411,-28.308105,18.829346,40.008545,61.157227,7.290649,28.671265,-21.66748,-3.326416,33.560181,-17.86499,23.733521,2.999878,-21.994019,26.300049,-3.137207,22.058105,14.959717,-17.147827,-28.387451,-70.898438,-64.273071,27.813721,17.263794,2.783203,6.652832,43.127441,59.661865,-16.287231,-55.331421,19.119263,-35.766602,-6.567383,8.630371,22.894287,49.807739,-44.088745,17.504883,-51.989746,26.196289,-37.005615,35.797119,22.198486,-56.347656,42.041016
-22.006226,8.242798,-44.47937,-24.298096,38.323975,37.817383,28.262329,-9.53064,-67.025757,-32.531738,-41.134644,48.21167,-33.428955,-36.984253,20.214844,-35.818481,19.619751,42.776489,13.232422,16.470337,4.064941,-58.569336,-31.619263,1.773071,-46.902466,-45.431519,19.628906,28.756714,-18.505859,31.634521,4.351807,-12.576294,45.803833,52.218628,-4.986572,21.203613,44.854736,-56.671143,31.771851,7.620239,-25.808716,12.887573,22.235107,38.104248,8.004761,35.05249,18.151855,-26.190186,21.429443,11.367798,31.04248,11.032104,16.043091,-19.198608,-6.488037,-7.571411,-28.308105,18.829346,46.078491,61.157227,7.290649,33.227539,-21.66748,-3.326416,30.926514,-21.099854,23.733521,0.299072,-21.994019,26.300049,-5.807495,21.139526,14.959717,-17.147827,-10.305786,-63.845825,-64.962769,26.68457,17.263794,2.783203,6.652832,43.127441,62.045288,-19.140625,-55.331421,19.119263,-38.977051,-6.567383,8.630371,22.894287,48.602295,-48.648071,16.494751,-51.989746,26.196289,-37.005615,37.097168,17.446899,-56.347656,42.041016
-25.689697,6.549072,-44.47937,-24.298096,35.223389,37.817383,28.262329,-9.53064,-67.025757,-32.531738,-41.134644,48.21167,-33.428955,-36.984253,20.214844,-35.818481,19.619751,42.776489,13.232422,16.470337,4.064941,-58.569336,-31.619263,-1.568604,-50.198364,-45.431519,19.628906,28.756714,-18.505859,31.634521,1.135254,-15.682983,44.37561,48.016357,-6.75354,21.203613,44.854736,-50.094604,31.771851,7.620239,-25.808716,10.626221,22.235107,38.104248,8.004761,35.05249,18.151855,-26.190186,21.429443,11.367798,31.04248,11.032104,16.043091,-19.198608,-6.488037,7.48291,-28.308105,18.829346,46.078491,61.157227,7.290649,33.227539,-21.66748,-3.326416,30.926514,-21.099854,22.097778,0.299072,-21.994019,26.300049,-5.807495,21.139526,14.959717,-20.028687,-10.305786,-63.845825,-64.962769,26.68457,17.056274,15.231323,4.104614,38.583374,62.045288,-19.140625,-55.331421,18.591309,-38.977051,-6.567383,8.630371,22.894287,48.602295,-48.648071,16.494751,-51.989746,26.196289,-37.005615,37.097168,17.446899,-56.347656,42.041016
-25.689697,6.549072,-45.898438,-24.298096,35.223389,34.21936,24.353027,-13.235474,-67.053223,-34.481812,-43.984985,62.210083,-7.10144,-36.984253,20.214844,-35.818481,19.619751,42.776489,13.232422,16.470337,4.064941,-61.557007,-34.939575,-1.568604,-50.198364,-45.431519,18.823242,28.756714,-18.505859,31.634521,1.135254,-15.682983,44.37561,48.016357,-6.75354,21.447754,44.366455,-50.094604,29.333496,4.077148,-28.875732,10.626221,22.235107,34.591675,8.02002,35.05249,18.151855,-26.190186,21.429443,11.367798,25.430298,9.231567,14.291382,3.903198,-9.649658,7.48291,-31.201172,37.026978,46.078491,61.157227,6.628418,33.227539,-24.847412,-5.0354,30.926514,-21.099854,22.097778,0.299072,-25.137329,25.268555,-5.807495,21.139526,14.959717,-20.028687,-10.305786,-63.845825,-64.962769,26.68457,17.056274,15.231323,4.104614,38.583374,62.045288,-19.140625,-61.584473,18.591309,-38.977051,-6.567383,6.274414,22.515869,48.602295,-48.648071,16.494751,-55.856323,24.023438,-38.90686,37.097168,17.446899,-47.387695,39.660645
-25.689697,6.549072,-45.898438,-27.770996,35.223389,34.21936,24.353027,-13.235474,-67.053223,-34.481812,-43.984985,62.210083,-7.10144,-36.984253,16.381836,-38.702393,19.058228,59.585571,11.056519,14.147949,4.064941,-61.557007,-34.939575,-1.568604,-50.198364,-47.634888,18.823242,26.721191,-18.505859,29.428101,1.135254,-15.682983,44.37561,48.016357,-6.75354,21.447754,44.366455,-50.094604,29.333496,4.077148,-28.875732,10.626221,20.315552,34.591675,8.02002,29.937744,35.256958,-28.500366,18.341064,8.880615,25.430298,9.231567,14.291382,3.903198,-9.649658,7.48291,-31.201172,37.026978,49.420166,62.112427,6.628418,35.726929,-24.847412,-5.0354,28.375244,-24.67041,22.097778,-2.1698,-25.137329,25.268555,-8.325195,20.001221,12.533569,-20.028687,7.327271,-50.253296,-60.528564,25.335693,17.056274,15.231323,4.104614,38.583374,62.045288,-22.241211,-61.584473,18.591309,-42.29126,-9.362793,6.274414,22.515869,46.731567,-53.222656,16.235352,-55.856323,24.023438,-38.90686,37.588501,13.116455,-47.387695,39.660645
-29.382324,4.486084,-45.898438,-27.770996,35.223389,34.21936,24.353027,-13.235474,-67.053223,-34.481812,-43.984985,62.210083,-7.10144,-39.767456,16.381836,-38.702393,19.058228,59.585571,11.056519,14.147949,0.775146,-61.557007,-34.939575,-1.568604,-53.857422,-47.634888,18.823242,26.721191,-21.987915,29.428101,-2.133179,-19.055176,42.538452,43.463135,-8.761597,21.447754,44.366455,-38.613892,29.333496,4.077148,-28.875732,10.626221,20.315552,34.591675,8.02002,29.937744,35.256958,-28.500366,18.341064,8.880615,25.430298,9.231567,14.291382,3.903198,-9.649658,19.842529,-31.201172,37.026978,49.420166,62.112427,6.628418,35.726929,-24.847412,-5.0354,28.375244,-24.67041,20.19043,-2.1698,-25.137329,25.268555,-8.325195,20.001221,12.533569,-23.275757,7.327271,-50.253296,-60.528564,25.335693,16.574097,29.550171,1.44043,33.929443,63.192749,-22.241211,-61.584473,18.591309,-42.29126,-9.362793,6.274414,22.515869,46.731567,-53.222656,16.235352,-55.856323,24.023438,-38.90686,37.588501,13.116455,-47.387695,39.660645
-29.382324,4.486084,-47.753906,-27.770996,32.598877,34.21936,20.761108,-16.775513,-62.115479,-36.087036,-46.94519,62.210083,20.196533,-39.767456,16.381836,-38.702393,19.058228,59.585571,11.056519,14.147949,0.775146,-65.2771,-38.409424,-4.89502,-53.857422,-47.634888,17.663574,26.721191,-21.987915,29.428101,-2.133179,-19.055176,42.538452,43.463135,-8.761597,21.932983,43.041992,-38.613892,27.664185,0.582886,-31.716919,8.139038,20.315552,30.938721,7.60498,29.937744,35.256958,-28.500366,18.341064,8.880615,25.430298,9.231567,12.37793,24.325562,-13.067627,19.842529,-34.402466,50.628662,49.420166,62.112427,5.795288,35.726929,-27.789307,-6.87561,28.375244,-24.67041,20.19043,-2.1698,-28.250122,24.740601,-8.325195,20.001221,12.533569,-23.275757,7.327271,-50.253296,-60.528564,25.335693,16.574097,29.550171,1.44043,33.929443,63.192749,-22.241211,-64.349365,18.032837,-42.29126,-9.362793,6.274414,22.515869,46.731567,-53.222656,16.235352,-55.856323,22.738647,-40.579224,37.588501,13.116455,-31.976318,36.846924
-29.382324,4.486084,-47.753906,-30.938721,32.598877,31.173706,20.761108,-16.775513,-62.115479,-36.087036,-46.94519,68.859863,20.196533,-39.767456,16.381836,-38.702393,17.739868,68.173218,8.92334,11.871338,0.775146,-65.2771,-38.409424,-4.89502,-53.857422,-51.089478,17.663574,25.790405,-21.987915,28.155518,-2.133179,-19.055176,42.538452,43.463135,-8.761597,21.932983,43.041992,-38.613892,27.664185,0.582886,-31.716919,8.139038,20.315552,30.938721,7.60498,29.937744,46.954346,-30.490112,15.527344,6.170654,20.175171,7.055664,12.37793,24.325562,-13.067627,19.842529,-34.402466,50.628662,51.138306,62.594604,5.795288,37.414551,-27.789307,-6.87561,28.375244,-28.656006,20.19043,-2.1698,-28.250122,24.740601,-10.760498,18.643188,10.08606,-23.275757,7.327271,-50.253296,-49.908447,23.831177,16.574097,29.550171,1.44043,33.929443,63.192749,-22.241211,-64.349365,18.032837,-45.166016,-12.1521,3.536987,22.88208,44.454956,-57.400513,16.317749,-60.107422,22.738647,-40.579224,37.252808,9.524536,-31.976318,36.846924
-32.769775,1.882935,-47.753906,-30.938721,32.598877,31.173706,20.761108,-16.775513,-62.115479,-36.087036,-46.94519,68.859863,20.196533,-43.051147,14.105225,-41.97998,17.739868,68.173218,8.92334,11.871338,-2.029419,-65.2771,-38.409424,-4.89502,-56.201172,-51.089478,17.663574,25.790405,-25.418091,28.155518,-2.133179,-22.512817,40.176392,38.845825,-10.842896,21.932983,43.041992,-38.613892,27.664185,0.582886,-31.716919,8.139038,18.136597,30.938721,7.60498,24.926758,46.954346,-30.490112,15.527344,6.170654,20.175171,7.055664,12.37793,24.325562,-13.067627,28.424072,-34.402466,50.628662,51.138306,62.594604,5.795288,37.414551,-27.789307,-6.87561,26.339722,-28.656006,17.932129,-4.516602,-28.250122,24.740601,-10.760498,18.643188,10.08606,-26.748657,22.463989,-31.271362,-49.908447,23.831177,15.710449,43.24646,-1.403809,29.330444,63.775635,-25.579834,-64.349365,18.032837,-45.166016,-12.1521,3.536987,22.88208,44.454956,-57.400513,16.317749,-60.107422,22.738647,-40.579224,37.252808,9.524536,-31.976318,36.846924
-32.769775,1.882935,-50.985718,-30.938721,30.276489,31.173706,20.761108,-20.272827,-50.146484,-37.600708,-49.72229,68.859863,20.196533,-43.051147,14.105225,-41.97998,17.739868,68.173218,8.92334,11.871338,-2.029419,-68.67981,-41.848755,-7.962036,-56.201172,-51.089478,16.189575,25.790405,-25.418091,28.155518,-5.456543,-22.512817,40.176392,38.845825,-10.842896,22.079468,41.009521,-23.513794,27.664185,-2.764893,-34.545898,5.52063,18.136597,30.938721,7.60498,24.926758,46.954346,-30.490112,15.527344,6.170654,20.175171,7.055664,12.37793,39.624023,-16.604614,28.424072,-34.402466,59.396362,51.138306,62.594604,4.84314,37.414551,-27.789307,-9.017944,26.339722,-28.656006,17.932129,-4.516602,-31.57959,24.49646,-10.760498,18.643188,10.08606,-26.748657,22.463989,-31.271362,-49.908447,23.831177,15.710449,43.24646,-1.403809,29.330444,63.775635,-25.579834,-60.144043,17.245483,-45.166016,-12.1521,3.536987,22.88208,44.454956,-57.400513,16.317749,-60.107422,22.479248,-42.349243,37.252808,9.524536,-11.901855,33.999634
-32.769775,1.882935,-50.985718,-33.584595,30.276489,28.707886,17.5354,-20.272827,-50.146484,-37.600708,-49.72229,70.223999,43.588257,-43.051147,14.105225,-41.97998,17.739868,70.095825,6.625366,9.848022,-2.029419,-68.67981,-41.848755,-7.962036,-56.201172,-51.089478,16.189575,25.701904,-25.418091,28.155518,-5.456543,-22.512817,40.176392,38.845825,-10.842896,22.079468,41.009521,-23.513794,26.828003,-2.764893,-34.545898,5.52063,18.136597,27.349854,6.915283,24.926758,46.954346,-32.421875,13.024902,3.146362,15.585327,4.440308,10.281372,39.624023,-16.604614,28.424072,-37.789917,59.396362,52.090454,62.435913,4.84314,38.858032,-30.511475,-9.017944,26.339722,-32.702637,17.932129,-4.516602,-31.57959,24.49646,-10.760498,17.08374,7.626343,-26.748657,22.463989,-31.271362,-49.908447,22.140503,15.710449,43.24646,-1.403809,29.330444,63.775635,-25.579834,-60.144043,17.245483,-47.445679,-15.023804,0.344849,23.501587,44.454956,-57.400513,16.079712,-63.076782,22.479248,-42.349243,37.252808,7.116699,-11.901855,33.999634
-32.769775,-1.306152,-50.985718,-33.584595,30.276489,28.707886,17.5354,-20.272827,-50.146484,-37.600708,-49.72229,70.223999,43.588257,-47.039795,13.510132,-45.303345,15.890503,70.095825,6.625366,9.848022,-4.656982,-68.67981,-41.848755,-7.962036,-54.919434,-55.31311,16.189575,25.701904,-28.640747,27.664185,-5.456543,-22.512817,40.176392,34.527588,-13.037109,22.079468,41.009521,-23.513794,26.828003,-2.764893,-34.545898,5.52063,15.72876,27.349854,6.915283,20.15686,53.607178,-32.421875,13.024902,3.146362,15.585327,4.440308,10.281372,39.624023,-16.604614,33.331299,-37.789917,59.396362,52.090454,62.435913,4.84314,38.858032,-30.511475,-9.017944,25.018311,-32.702637,17.932129,-6.832886,-31.57959,24.49646,-13.226318,17.08374,7.626343,-29.989624,34.106445,-9.622192,-33.651733,22.140503,15.710449,53.826904,-4.550171,25.076294,63.763428,-28.881836,-60.144043,17.245483,-47.445679,-15.023804,0.344849,23.501587,41.775513,-60.824585,16.079712,-63.076782,22.479248,-42.349243,36.148071,7.116699,-11.901855,33.999634
-35.690308,-1.306152,-50.985718,-33.584595,28.048706,28.707886,17.5354,-20.272827,-50.146484,-39.318848,-52.145386,70.223999,43.588257,-47.039795,13.510132,-45.303345,15.890503,70.095825,6.625366,9.848022,-4.656982,-70.425415,-44.793701,-10.852051,-54.919434,-55.31311,14.395142,25.701904,-28.640747,27.664185,-8.81958,-25.897217,37.319946,34.527588,-13.037109,21.618652,38.4552,-7.125854,26.828003,-2.764893,-37.689209,2.95105,15.72876,27.349854,6.915283,20.15686,53.607178,-32.421875,13.024902,3.146362,15.585327,4.440308,10.281372,39.624023,-20.028687,33.331299,-37.789917,59.396362,52.090454,62.435913,3.921509,38.858032,-30.511475,-11.395264,25.018311,-32.702637,15.460205,-6.832886,-31.57959,24.49646,-13.226318,17.08374,7.626343,-29.989624,34.106445,-9.622192,-33.651733,22.140503,14.352417,53.826904,-4.550171,25.076294,63.763428,-28.881836,-48.254395,16.104126,-47.445679,-15.023804,0.344849,23.501587,41.775513,-60.824585,16.079712,-63.076782,22.479248,-42.349243,36.148071,7.116699,-11.901855,33.999634
-35.690308,-1.306152,-55.847168,-35.726929,28.048706,26.904297,14.605713,-23.831177,-30.932617,-39.318848,-52.145386,68.951416,59.747314,-47.039795,13.510132,-45.303345,15.890503,70.095825,3.781128,7.958984,-4.656982,-70.425415,-44.793701,-10.852051,-54.919434,-55.31311,14.395142,25.701904,-28.640747,27.664185,-8.81958,-25.897217,37.319946,34.527588,-13.037109,21.618652,38.4552,-7.125854,26.663208,-5.975342,-37.689209,2.95105,15.72876,24.240112,6.106567,20.15686,53.607178,-32.421875,11.11145,-0.338745,11.972046,1.40686,7.940674,49.069214,-20.028687,33.331299,-41.18042,64.242554,52.496338,61.578369,3.921509,40.234375,-33.273315,-11.395264,25.018311,-32.702637,15.460205,-6.832886,-35.235596,24.209595,-13.226318,15.322876,5.148315,-29.989624,34.106445,-9.622192,-33.651733,22.140503,14.352417,53.826904,-4.550171,25.076294,63.763428,-28.881836,-48.254395,16.104126,-49.258423,-18.130493,-3.063965,24.081421,41.775513,-60.824585,16.079712,-62.387085,22.915649,-44.37561,36.148071,7.116699,9.667969,31.463623
-35.690308,-1.306152,-55.847168,-35.726929,28.048706,26.904297,14.605713,-23.831177,-30.932617,-39.318848,-52.145386,68.951416,59.747314,-51.223755,14.059448,-47.98584,13.748169,68.255615,3.781128,7.958984,-7.711792,-70.425415,-44.793701,-10.852051,-48.120117,-58.666992,14.395142,25.967407,-31.643677,27.618408,-8.81958,-25.897217,37.319946,34.527588,-15.432739,21.618652,38.4552,-7.125854,26.663208,-5.975342,-37.689209,2.95105,13.150024,24.240112,6.106567,15.887451,56.842041,-34.918213,11.11145,-0.338745,11.972046,1.40686,7.940674,49.069214,-20.028687,33.331299,-41.18042,64.242554,52.496338,61.578369,3.921509,40.234375,-33.273315,-11.395264,24.42627,-36.437988,15.460205,-9.32312,-35.235596,24.209595,-15.863037,15.322876,5.148315,-32.60498,42.224121,11.431885,-13.955688,20.26062,14.352417,53.826904,-4.550171,21.496582,62.93335,-31.921387,-48.254395,16.104126,-49.258423,-18.130493,-3.063965,24.081421,38.848877,-63.864136,15.264893,-62.387085,22.915649,-44.37561,34.518433,5.963135,9.667969,31.463623
-38.381958,-4.855347,-55.847168,-35.726929,25.802612,26.904297,14.605713,-23.831177,-30.932617,-39.318848,-54.251099,68.951416,59.747314,-51.223755,14.059448,-47.98584,13.748169,68.255615,3.781128,7.958984,-7.711792,-69.13147,-47.259521,-13.641357,-48.120117,-58.666992,14.395142,25.967407,-31.643677,27.618408,-12.261963,-29.0802,34.048462,30.926514,-15.432739,21.618652,35.617065,8.120728,26.663208,-5.975342,-41.247559,0.540161,13.150024,24.240112,6.106567,15.887451,56.842041,-34.918213,11.11145,-0.338745,11.972046,1.40686,7.940674,49.069214,-20.028687,35.778809,-41.18042,64.242554,52.496338,61.578369,2.801514,40.234375,-33.273315,-13.821411,24.42627,-36.437988,12.863159,-9.32312,-35.235596,24.209595,-15.863037,15.322876,5.148315,-32.60498,42.224121,11.431885,-13.955688,20.26062,12.634277,59.725952,-7.980347,21.496582,62.93335,-31.921387,-31.448364,14.419556,-49.258423,-18.130493,-3.063965,24.081421,38.848877,-63.864136,15.264893,-62.387085,22.915649,-44.37561,34.518433,5.963135,9.667969,31.463623
-38.381958,-4.855347,-61.413574,-35.726929,25.802612,25.656128,11.849976,-27.49939,-6.549072,-41.461182,-54.251099,67.004395,67.962646,-51.223755,14.059448,-47.98584,13.748169,68.255615,3.781128,7.958984,-7.711792,-69.13147,-47.259521,-13.641357,-48.120117,-58.666992,12.216187,25.967407,-31.643677,27.618408,-12.261963,-29.0802,34.048462,30.926514,-15.432739,20.578003,35.617065,8.120728,26.669312,-9.25293,-41.247559,0.540161,13.150024,21.984863,5.291748,15.887451,56.842041,-34.918213,11.11145,-4.193115,9.500122,-1.843262,5.233765,53.540039,-23.245239,35.778809,-44.165039,66.275024,52.496338,59.970093,2.801514,40.234375,-36.331177,-13.821411,24.42627,-36.437988,12.863159,-9.32312,-39.190674,23.730469,-15.863037,15.322876,2.593994,-32.60498,42.224121,11.431885,-13.955688,20.26062,12.634277,59.725952,-7.980347,21.496582,62.93335,-31.921387,-31.448364,14.419556,-49.258423,-21.325684,-6.500244,24.206543,38.848877,-63.864136,15.264893,-56.066895,23.510742,-46.661377,34.518433,5.963135,29.290771,29.602051
-38.381958,-4.855347,-61.413574,-37.832642,25.802612,25.656128,11.849976,-27.49939,-6.549072,-41.461182,-54.251099,67.004395,67.962646,-54.833984,14.959717,-49.734497,11.624146,65.219116,0.369263,5.697632,-11.981201,-69.13147,-47.259521,-13.641357,-48.120117,-58.746338,12.216187,26.010132,-34.674072,27.49939,-12.261963,-29.0802,34.048462,30.926514,-15.432739,20.578003,35.617065,8.120728,26.669312,-9.25293,-41.247559,0.540161,10.394287,21.984863,5.291748,12.390137,58.337402,-38.131714,9.817505,-4.193115,9.500122,-1.843262,5.233765,53.540039,-23.245239,35.778809,-44.165039,66.275024,52.462769,59.970093,2.801514,41.278076,-36.331177,-13.821411,24.267578,-39.562988,12.863159,-11.999512,-39.190674,23.730469,-18.640137,13.406372,2.593994,-32.60498,47.521973,29.095459,6.161499,18.161011,12.634277,59.725952,-7.980347,21.496582,61.14502,-34.594727,-31.448364,14.419556,-51.397705,-21.325684,-6.500244,24.206543,35.601807,-67.037964,13.790894,-56.066895,23.510742,-46.661377,32.562256,5.877686,29.290771,29.602051
-41.262817,-8.444214,-61.413574,-37.832642,23.608398,25.656128,11.849976,-27.49939,-6.549072,-41.461182,-54.251099,67.004395,67.962646,-54.833984,14.959717,-49.734497,11.624146,65.219116,0.369263,5.697632,-11.981201,-69.13147,-47.259521,-16.601563,-35.214233,-58.746338,12.216187,26.010132,-34.674072,27.49939,-15.716553,-32.171631,30.511475,28.29895,-18.09082,20.578003,35.617065,20.367432,26.669312,-9.25293,-41.247559,-1.669312,10.394287,21.984863,5.291748,12.390137,58.337402,-38.131714,9.817505,-4.193115,9.500122,-1.843262,5.233765,53.540039,-23.245239,37.04834,-44.165039,66.275024,52.462769,59.970093,2.801514,41.278076,-36.331177,-13.821411,24.267578,-39.562988,10.333252,-11.999512,-39.190674,23.730469,-18.640137,13.406372,2.593994,-34.387207,47.521973,29.095459,6.161499,18.161011,10.531616,60.98938,-11.624146,18.954468,61.14502,-34.594727,-31.448364,12.307739,-51.397705,-21.325684,-6.500244,24.206543,35.601807,-67.037964,13.790894,-56.066895,23.510742,-46.661377,32.562256,5.877686,29.290771,29.602051
-41.262817,-8.444214,-64.093018,-37.832642,23.608398,24.679565,9.069824,-31.121826,19.116211,-43.939209,-56.323242,65.17334,69.885254,-54.833984,14.959717,-49.734497,11.624146,65.219116,0.369263,5.697632,-11.981201,-62.88147,-49.523926,-16.601563,-35.214233,-58.746338,9.692383,26.010132,-34.674072,27.49939,-15.716553,-32.171631,30.511475,28.29895,-18.09082,19.213867,32.58667,20.367432,26.382446,-12.753296,-44.995117,-1.669312,10.394287,20.812988,4.345703,12.390137,58.337402,-38.131714,9.817505,-4.193115,8.233643,-5.12085,2.148438,54.714966,-26.321411,37.04834,-46.673584,66.558838,52.462769,59.970093,1.409912,41.278076,-39.761353,-16.040039,24.267578,-39.562988,10.333252,-11.999512,-43.115234,22.976685,-18.640137,13.406372,2.593994,-34.387207,47.521973,29.095459,6.161499,18.161011,10.531616,60.98938,-11.624146,18.954468,61.14502,-34.594727,-15.036011,12.307739,-51.397705,-21.325684,-9.70459,23.937988,35.601807,-67.037964,13.790894,-43.411255,23.638916,-48.904419,32.562256,5.877686,44.552612,28.552246
