"V3","V4","V7","V8","V9","V10","V11","V12","V13","V14","V15","V16"
-63.131714,54.623413,-29.650879,4.544067,8.69751,43.215942,37.734985,12.094116,-37.316895,-59.692383,38.394165,15.808105
-63.131714,54.623413,-29.650879,4.544067,5.389404,43.215942,37.734985,12.094116,-37.316895,-63.842773,36.068726,15.808105
-63.131714,54.623413,-29.650879,2.993774,5.389404,43.215942,37.734985,9.552002,-37.316895,-63.842773,36.068726,14.031982
-65.39917,54.910278,-32.571411,2.993774,5.389404,42.074585,37.734985,9.552002,-39.129639,-63.842773,36.068726,14.031982
-65.39917,54.910278,-32.571411,2.993774,1.992798,42.074585,35.20813,9.552002,-39.129639,-68.310547,33.319092,14.031982
-65.39917,54.910278,-32.571411,2.993774,1.992798,42.074585,35.20813,7.000732,-39.129639,-68.310547,33.319092,12.136841
-63.232422,54.421997,-35.787964,1.16272,1.992798,42.074585,35.20813,7.000732,-39.129639,-68.310547,33.319092,12.136841
-63.232422,54.421997,-35.787964,1.16272,1.992798,40.359497,32.275391,7.000732,-41.543579,-71.246338,30.114746,12.136841
-63.232422,54.421997,-35.787964,1.16272,-1.296997,40.359497,32.275391,4.275513,-41.543579,-71.246338,30.114746,12.136841
-54.437256,53.265381,-35.787964,-0.93689,-1.296997,40.359497,32.275391,4.275513,-41.543579,-71.246338,30.114746,10.119629
-54.437256,53.265381,-39.309692,-0.93689,-1.296997,38.153076,29.489136,4.275513,-45.108032,-71.246338,26.63269,10.119629
-54.437256,53.265381,-39.309692,-0.93689,-4.348755,38.153076,29.489136,1.464844,-45.108032,-70.678711,26.63269,10.119629
-54.437256,53.265381,-39.309692,-3.292847,-4.348755,38.153076,29.489136,1.464844,-45.108032,-70.678711,26.63269,7.901001
-38.442993,51.379395,-42.825317,-3.292847,-4.348755,35.623169,27.301025,1.464844,-49.832153,-70.678711,26.63269,7.901001
-38.442993,51.379395,-42.825317,-3.292847,-7.281494,35.623169,27.301025,1.464844,-49.832153,-64.541626,22.964478,7.901001
-38.442993,51.379395,-42.825317,-5.944824,-7.281494,35.623169,27.301025,-1.480103,-49.832153,-64.541626,22.964478,5.444336
-16.918945,48.770142,-45.953369,-5.944824,-7.281494,33.169556,26.11084,-1.480103,-54.47998,-64.541626,22.964478,5.444336
-16.918945,48.770142,-45.953369,-5.944824,-10.269165,33.169556,26.11084,-1.480103,-54.47998,-51.950073,19.488525,5.444336
-16.918945,48.770142,-45.953369,-8.792114,-10.269165,33.169556,26.11084,-4.394531,-54.47998,-51.950073,19.488525,2.685547
6.729126,45.507813,-48.498535,-8.792114,-10.269165,31.173706,26.11084,-4.394531,-56.96106,-51.950073,19.488525,2.685547
6.729126,45.507813,-48.498535,-8.792114,-13.485718,31.173706,25.747681,-4.394531,-56.96106,-33.810425,16.516113,2.685547
6.729126,45.507813,-48.498535,-8.792114,-13.485718,31.173706,25.747681,-7.330322,-56.96106,-33.810425,16.516113,-0.308228
28.463745,41.812134,-50.790405,-11.779785,-13.485718,31.173706,25.747681,-7.330322,-56.96106,-33.810425,16.516113,-0.308228
28.463745,41.812134,-50.790405,-11.779785,-13.485718,29.928589,25.888062,-7.330322,-54.766846,-12.536621,14.456177,-0.308228
28.463745,41.812134,-50.790405,-11.779785,-16.891479,29.928589,25.888062,-10.202026,-54.766846,-12.536621,14.456177,-0.308228
45.178223,37.866211,-50.790405,-14.752197,-16.891479,29.928589,25.888062,-10.202026,-54.766846,-12.536621,14.456177,-3.451538
45.178223,37.866211,-53.491211,-14.752197,-16.891479,29.434204,25.942993,-10.202026,-46.405029,-12.536621,13.400269,-3.451538
45.178223,37.866211,-53.491211,-14.752197,-20.306396,29.434204,25.942993,-13.183594,-46.405029,8.666992,13.400269,-3.451538
45.178223,37.866211,-53.491211,-17.687988,-20.306396,29.434204,25.942993,-13.183594,-46.405029,8.666992,13.400269,-6.552124
55.523682,33.972168,-57.18689,-17.687988,-20.306396,29.470825,25.689697,-13.183594,-31.87561,8.666992,13.400269,-6.552124
55.523682,33.972168,-57.18689,-17.687988,-23.48938,29.470825,25.689697,-13.183594,-31.87561,27.035522,13.293457,-6.552124
55.523682,33.972168,-57.18689,-20.544434,-23.48938,29.470825,25.689697,-16.235352,-31.87561,27.035522,13.293457,-9.533691
60.101318,30.401611,-61.694336,-20.544434,-23.48938,29.632568,25.045776,-16.235352,-13.238525,27.035522,13.293457,-9.533691
60.101318,30.401611,-61.694336,-20.544434,-26.419067,29.632568,25.045776,-16.235352,-13.238525,40.917969,13.705444,-9.533691
60.101318,30.401611,-61.694336,-23.31543,-26.419067,29.632568,25.045776,-19.454956,-13.238525,40.917969,13.705444,-12.380981
60.678101,27.490234,-65.710449,-23.31543,-26.419067,29.626465,25.045776,-19.454956,6.396484,40.917969,13.705444,-12.380981
60.678101,27.490234,-65.710449,-23.31543,-29.251099,29.626465,24.276733,-19.454956,6.396484,50.119019,14.273071,-12.380981
60.678101,27.490234,-65.710449,-23.31543,-29.251099,29.626465,24.276733,-22.665405,6.396484,50.119019,14.273071,-15.237427
59.216309,25.466919,-66.97998,-25.900269,-29.251099,29.626465,24.276733,-22.665405,6.396484,50.119019,14.273071,-15.237427
59.216309,25.466919,-66.97998,-25.900269,-29.251099,29.263306,23.452759,-22.665405,23.721313,55.459595,14.535522,-15.237427
59.216309,25.466919,-66.97998,-25.900269,-32.342529,29.263306,23.452759,-25.836182,23.721313,55.459595,14.535522,-15.237427
56.988525,24.420166,-66.97998,-28.24707,-32.342529,29.263306,23.452759,-25.836182,23.721313,55.459595,14.535522,-18.231201
56.988525,24.420166,-63.156128,-28.24707,-32.342529,28.594971,22.601318,-25.836182,36.660767,55.459595,14.367676,-18.231201
56.988525,24.420166,-63.156128,-28.24707,-35.86731,28.594971,22.601318,-28.820801,36.660767,58.178711,14.367676,-18.231201
56.988525,24.420166,-63.156128,-30.255127,-35.86731,28.594971,22.601318,-28.820801,36.660767,58.178711,14.367676,-21.414185
54.412842,24.151611,-52.780151,-30.255127,-35.86731,27.679443,21.405029,-28.820801,44.644165,58.178711,14.367676,-21.414185
54.412842,24.151611,-52.780151,-30.255127,-39.724731,27.679443,21.405029,-28.820801,44.644165,59.295654,13.656616,-21.414185
54.412842,24.151611,-52.780151,-32.037354,-39.724731,27.679443,21.405029,-31.793213,44.644165,59.295654,13.656616,-24.624634
51.2146,24.319458,-36.199951,-32.037354,-39.724731,26.577759,19.747925,-31.793213,48.690796,59.295654,13.656616,-24.624634
51.2146,24.319458,-36.199951,-32.037354,-43.490601,26.577759,19.747925,-31.793213,48.690796,59.448242,12.493896,-24.624634
51.2146,24.319458,-36.199951,-33.71582,-43.490601,26.577759,19.747925,-34.796143,48.690796,59.448242,12.493896,-27.685547
47.055054,24.42627,-15.524292,-33.71582,-43.490601,25.222778,19.747925,-34.796143,50.323486,59.448242,12.493896,-27.685547
47.055054,24.42627,-15.524292,-33.71582,-46.743774,25.222778,17.526245,-34.796143,50.323486,58.856201,10.86731,-27.685547
47.055054,24.42627,-15.524292,-33.71582,-46.743774,25.222778,17.526245,-38.067627,50.323486,58.856201,10.86731,-30.447388
41.818237,24.145508,5.966187,-35.488892,-46.743774,23.529053,17.526245,-38.067627,50.323486,58.856201,10.86731,-30.447388
41.818237,24.145508,5.966187,-35.488892,-46.743774,23.529053,15.057373,-38.067627,51.05896,57.647705,8.862305,-30.447388
41.818237,24.145508,5.966187,-35.488892,-49.353027,23.529053,15.057373,-41.439819,51.05896,57.647705,8.862305,-30.447388
35.830688,23.291016,5.966187,-37.384033,-49.353027,23.529053,15.057373,-41.439819,51.05896,57.647705,8.862305,-33.050537
35.830688,23.291016,25.064087,-37.384033,-49.353027,21.420288,12.564087,-41.439819,51.568604,57.647705,6.451416,-33.050537
35.830688,23.291016,25.064087,-37.384033,-51.751709,21.420288,12.564087,-44.772339,51.568604,55.9021,6.451416,-33.050537
35.830688,23.291016,25.064087,-39.334106,-51.751709,21.420288,12.564087,-44.772339,51.568604,55.9021,6.451416,-35.775757
29.650879,21.942139,39.614868,-39.334106,-51.751709,18.994141,10.284424,-44.772339,51.983643,55.9021,6.451416,-35.775757
29.650879,21.942139,39.614868,-39.334106,-54.602051,18.994141,10.284424,-44.772339,51.983643,53.759766,3.796387,-35.775757
29.650879,21.942139,39.614868,-41.177368,-54.602051,18.994141,10.284424,-47.686768,51.983643,53.759766,3.796387,-38.909912
23.928833,20.236206,49.06311,-41.177368,-54.602051,16.387939,8.056641,-47.686768,51.937866,53.759766,3.796387,-38.909912
23.928833,20.236206,49.06311,-41.177368,-58.364868,16.387939,8.056641,-47.686768,51.937866,51.266479,0.915527,-38.909912
23.928833,20.236206,49.06311,-42.944336,-58.364868,16.387939,8.056641,-50.204468,51.937866,51.266479,0.915527,-42.391968
19.174194,18.319702,54.162598,-42.944336,-58.364868,13.809204,8.056641,-50.204468,51.229858,51.266479,0.915527,-42.391968
19.174194,18.319702,54.162598,-42.944336,-62.567139,13.809204,5.715942,-50.204468,51.229858,48.406982,-2.041626,-42.391968
19.174194,18.319702,54.162598,-42.944336,-62.567139,13.809204,5.715942,-52.542114,51.229858,48.406982,-2.041626,-45.834351
15.783691,16.159058,56.384277,-44.836426,-62.567139,11.31897,5.715942,-52.542114,51.229858,48.406982,-2.041626,-45.834351
15.783691,16.159058,56.384277,-44.836426,-62.567139,11.31897,3.012085,-52.542114,49.713135,45.098877,-5.13916,-45.834351
15.783691,16.159058,56.384277,-44.836426,-65.69519,11.31897,3.012085,-55.383301,49.713135,45.098877,-5.13916,-45.834351
13.909912,13.696289,56.384277,-47.283936,-65.69519,11.31897,3.012085,-55.383301,49.713135,45.098877,-5.13916,-48.654175
13.909912,13.696289,57.067871,-47.283936,-65.69519,8.892822,0.137329,-55.383301,47.564697,45.098877,-8.36792,-48.654175
13.909912,13.696289,57.067871,-47.283936,-65.466309,8.892822,0.137329,-59.091187,47.564697,41.430664,-8.36792,-48.654175
13.909912,13.696289,57.067871,-50.436401,-65.466309,8.892822,0.137329,-59.091187,47.564697,41.430664,-8.36792,-50.628662
13.525391,10.806274,57.095337,-50.436401,-65.466309,6.414795,-2.69165,-59.091187,44.775391,41.430664,-8.36792,-50.628662
13.525391,10.806274,57.095337,-50.436401,-59.829712,6.414795,-2.69165,-59.091187,44.775391,37.65564,-11.819458,-50.628662
13.525391,10.806274,57.095337,-53.95813,-59.829712,6.414795,-2.69165,-63.580322,44.775391,37.65564,-11.819458,-52.072144
14.294434,7.546997,56.726074,-53.95813,-59.829712,3.823853,-5.099487,-63.580322,41.442871,37.65564,-11.819458,-52.072144
14.294434,7.546997,56.726074,-53.95813,-47.891235,3.823853,-5.099487,-63.580322,41.442871,34.255981,-15.39917,-52.072144
14.294434,7.546997,56.726074,-56.723022,-47.891235,3.823853,-5.099487,-67.272949,41.442871,34.255981,-15.39917,-53.878784
15.673828,4.058838,55.932617,-56.723022,-47.891235,1.138306,-5.099487,-67.272949,37.493896,34.255981,-15.39917,-53.878784
15.673828,4.058838,55.932617,-56.723022,-30.584717,1.138306,-7.192993,-67.272949,37.493896,31.643677,-19.049072,-53.878784
15.673828,4.058838,55.932617,-56.723022,-30.584717,1.138306,-7.192993,-68.508911,37.493896,31.643677,-19.049072,-56.845093
16.973877,0.592041,54.58374,-57.125854,-30.584717,-1.519775,-7.192993,-68.508911,37.493896,31.643677,-19.049072,-56.845093
16.973877,0.592041,54.58374,-57.125854,-30.584717,-1.519775,-9.246826,-68.508911,33.187866,30.065918,-22.576904,-56.845093
16.973877,0.592041,54.58374,-57.125854,-10.385132,-1.519775,-9.246826,-65.509033,33.187866,30.065918,-22.576904,-56.845093
17.651367,-2.716064,54.58374,-53.579712,-10.385132,-1.519775,-9.246826,-65.509033,33.187866,30.065918,-22.576904,-60.974121
17.651367,-2.716064,52.655029,-53.579712,-10.385132,-4.086304,-11.755371,-65.509033,28.881836,30.065918,-26.043701,-60.974121
17.651367,-2.716064,52.655029,-53.579712,9.44519,-4.086304,-11.755371,-57.077026,28.881836,29.403687,-26.043701,-60.974121
17.651367,-2.716064,52.655029,-45.324707,9.44519,-4.086304,-11.755371,-57.077026,28.881836,29.403687,-26.043701,-64.901733
17.398071,-5.856323,50.140381,-45.324707,9.44519,-6.521606,-14.825439,-57.077026,25.22583,29.403687,-26.043701,-64.901733
17.398071,-5.856323,50.140381,-45.324707,26.147461,-6.521606,-14.825439,-57.077026,25.22583,29.321289,-29.489136,-64.901733
17.398071,-5.856323,50.140381,-32.748413,26.147461,-6.521606,-14.825439,-43.24646,25.22583,29.321289,-29.489136,-66.177368
16.278076,-9.008789,47.103882,-32.748413,26.147461,-8.978271,-18.289185,-43.24646,22.616577,29.321289,-29.489136,-66.177368
16.278076,-9.008789,47.103882,-32.748413,38.217163,-8.978271,-18.289185,-43.24646,22.616577,29.35791,-33.151245,-66.177368
16.278076,-9.008789,47.103882,-17.529297,38.217163,-8.978271,-18.289185,-25.741577,22.616577,29.35791,-33.151245,-62.10022
14.498901,-12.301636,43.554688,-17.529297,38.217163,-11.599731,-18.289185,-25.741577,21.295166,29.35791,-33.151245,-62.10022
14.498901,-12.301636,43.554688,-17.529297,45.706177,-11.599731,-21.459961,-25.741577,21.295166,29.23584,-37.04834,-62.10022
14.498901,-12.301636,43.554688,-17.529297,45.706177,-11.599731,-21.459961,-7.089233,21.295166,29.23584,-37.04834,-51.089478
12.338257,-15.811157,39.639282,-1.904297,45.706177,-11.599731,-21.459961,-7.089233,21.295166,29.23584,-37.04834,-51.089478
12.338257,-15.811157,39.639282,-1.904297,45.706177,-14.474487,-23.983765,-7.089233,20.880127,28.787231,-41.119385,-51.089478
12.338257,-15.811157,39.639282,-1.904297,49.728394,-14.474487,-23.983765,9.881592,20.880127,28.787231,-41.119385,-51.089478
9.875488,-19.369507,39.639282,11.953735,49.728394,-14.474487,-23.983765,9.881592,20.880127,28.787231,-41.119385,-33.505249
9.875488,-19.369507,35.604858,11.953735,49.728394,-17.492676,-25.820923,9.881592,20.922852,28.787231,-45.046997,-33.505249
9.875488,-19.369507,35.604858,11.953735,51.73645,-17.492676,-25.820923,23.361206,20.922852,28.048706,-45.046997,-33.505249
9.875488,-19.369507,35.604858,22.753906,51.73645,-17.492676,-25.820923,23.361206,20.922852,28.048706,-45.046997,-11.825562
7.107544,-22.769165,31.872559,22.753906,51.73645,-20.489502,-27.670288,23.361206,20.788574,28.048706,-45.046997,-11.825562
7.107544,-22.769165,31.872559,22.753906,52.801514,-20.489502,-27.670288,23.361206,20.788574,27.023315,-48.696899,-11.825562
7.107544,-22.769165,31.872559,30.245972,52.801514,-20.489502,-27.670288,32.608032,20.788574,27.023315,-48.696899,10.31189
3.979492,-25.863647,28.857422,30.245972,52.801514,-23.26355,-30.181885,32.608032,20.263672,27.023315,-48.696899,10.31189
3.979492,-25.863647,28.857422,30.245972,53.442383,-23.26355,-30.181885,32.608032,20.263672,25.698853,-52.035522,10.31189
3.979492,-25.863647,28.857422,35.113525,53.442383,-23.26355,-30.181885,38.22937,20.263672,25.698853,-52.035522,29.391479
0.570679,-28.744507,26.837158,35.113525,53.442383,-25.863647,-30.181885,38.22937,19.287109,25.698853,-52.035522,29.391479
0.570679,-28.744507,26.837158,35.113525,53.625488,-25.863647,-33.642578,38.22937,19.287109,23.986816,-55.465698,29.391479
0.570679,-28.744507,26.837158,35.113525,53.625488,-25.863647,-33.642578,41.326904,19.287109,23.986816,-55.465698,43.289185
-2.960205,-31.671143,25.772095,38.354492,53.625488,-28.445435,-33.642578,41.326904,19.287109,23.986816,-55.465698,43.289185
-2.960205,-31.671143,25.772095,38.354492,53.625488,-28.445435,-37.304688,41.326904,18.1427,21.868896,-59.255981,43.289185
-2.960205,-31.671143,25.772095,38.354492,53.22876,-28.445435,-37.304688,43.182373,18.1427,21.868896,-59.255981,43.289185
-6.402588,-34.957886,25.772095,40.917969,53.22876,-28.445435,-37.304688,43.182373,18.1427,21.868896,-59.255981,51.693726
-6.402588,-34.957886,25.378418,40.917969,53.22876,-31.243896,-39.993286,43.182373,16.912842,21.868896,-63.418579,51.693726
-6.402588,-34.957886,25.378418,40.917969,52.157593,-31.243896,-39.993286,44.509888,16.912842,19.372559,-63.418579,51.693726
-6.402588,-34.957886,25.378418,43.228149,52.157593,-31.243896,-39.993286,44.509888,16.912842,19.372559,-63.418579,55.804443
-9.707642,-38.626099,25.161743,43.228149,52.157593,-34.268188,-40.55481,44.509888,15.67688,19.372559,-63.418579,55.804443
-9.707642,-38.626099,25.161743,43.228149,50.524902,-34.268188,-40.55481,44.509888,15.67688,16.650391,-66.900635,55.804443
-9.707642,-38.626099,25.161743,45.346069,50.524902,-34.268188,-40.55481,45.721436,15.67688,16.650391,-66.900635,57.330322
-12.93335,-42.449951,24.719238,45.346069,50.524902,-37.301636,-39.096069,45.721436,14.147949,16.650391,-66.900635,57.330322
-12.93335,-42.449951,24.719238,45.346069,48.471069,-37.301636,-39.096069,45.721436,14.147949,13.78479,-68.267822,57.330322
-12.93335,-42.449951,24.719238,46.994019,48.471069,-37.301636,-39.096069,46.676636,14.147949,13.78479,-68.267822,57.739258
-16.244507,-45.968628,23.773193,46.994019,48.471069,-39.96582,-39.096069,46.676636,12.210083,13.78479,-68.267822,57.739258
-16.244507,-45.968628,23.773193,46.994019,46.124268,-39.96582,-36.801147,46.676636,12.210083,10.839844,-65.908813,57.739258
-16.244507,-45.968628,23.773193,46.994019,46.124268,-39.96582,-36.801147,47.351074,12.210083,10.839844,-65.908813,57.675171
-19.677734,-48.922729,22.30835,47.912598,46.124268,-42.086792,-36.801147,47.351074,12.210083,10.839844,-65.908813,57.675171
-19.677734,-48.922729,22.30835,47.912598,46.124268,-42.086792,-35.65979,47.351074,9.713745,7.751465,-58.59375,57.675171
-19.677734,-48.922729,22.30835,47.912598,43.518066,-42.086792,-35.65979,47.555542,9.713745,7.751465,-58.59375,57.675171
-23.129272,-51.428223,22.30835,47.906494,43.518066,-42.086792,-35.65979,47.555542,9.713745,7.751465,-58.59375,57.168579
-23.129272,-51.428223,20.428467,47.906494,43.518066,-43.847656,-36.831665,47.555542,6.884766,7.751465,-46.087646,57.168579
-23.129272,-51.428223,20.428467,47.906494,40.783691,-43.847656,-36.831665,47.335815,6.884766,4.47998,-46.087646,57.168579
-23.129272,-51.428223,20.428467,46.97876,40.783691,-43.847656,-36.831665,47.335815,6.884766,4.47998,-46.087646,55.953979
-26.376343,-54.058838,18.313599,46.97876,40.783691,-45.880127,-39.916992,47.335815,3.912354,4.47998,-46.087646,55.953979
-26.376343,-54.058838,18.313599,46.97876,38.082886,-45.880127,-39.916992,47.335815,3.912354,1.037598,-29.708862,55.953979
-26.376343,-54.058838,18.313599,45.24231,38.082886,-45.880127,-39.916992,46.585083,3.912354,1.037598,-29.708862,53.918457
-29.315186,-57.37915,16.02478,45.24231,38.082886,-48.748779,-42.474365,46.585083,1.062012,1.037598,-29.708862,53.918457
-29.315186,-57.37915,16.02478,45.24231,35.742188,-48.748779,-42.474365,46.585083,1.062012,-2.429199,-11.672974,53.918457
-29.315186,-57.37915,16.02478,42.990112,35.742188,-48.748779,-42.474365,45.349121,1.062012,-2.429199,-11.672974,51.150513
-32.037354,-61.462402,13.577271,42.990112,35.742188,-52.490234,-42.474365,45.349121,-1.763916,-2.429199,-11.672974,51.150513
-32.037354,-61.462402,13.577271,42.990112,33.996582,-52.490234,-41.412354,45.349121,-1.763916,-5.792236,5.352783,51.150513
-32.037354,-61.462402,13.577271,42.990112,33.996582,-52.490234,-41.412354,43.54248,-1.763916,-5.792236,5.352783,47.906494
-34.87854,-65.292358,10.852051,40.524292,33.996582,-56.082153,-41.412354,43.54248,-1.763916,-5.792236,5.352783,47.906494
-34.87854,-65.292358,10.852051,40.524292,33.996582,-56.082153,-34.292603,43.54248,-4.650879,-8.947754,19.378662,47.906494
-34.87854,-65.292358,10.852051,40.524292,32.955933,-56.082153,-34.292603,41.412354,-4.650879,-8.947754,19.378662,47.906494
-38.076782,-66.958618,10.852051,38.269043,32.955933,-56.082153,-34.292603,41.412354,-4.650879,-8.947754,19.378662,44.32373
-38.076782,-66.958618,7.809448,38.269043,32.955933,-57.620239,-21.130371,41.412354,-7.894897,-8.947754,29.391479,44.32373
-38.076782,-66.958618,7.809448,38.269043,32.473755,-57.620239,-21.130371,39.151001,-7.894897,-12.011719,29.391479,44.32373
-38.076782,-66.958618,7.809448,36.508179,32.473755,-57.620239,-21.130371,39.151001,-7.894897,-12.011719,29.391479,40.487671
-41.644287,-64.300537,4.449463,36.508179,32.473755,-54.873657,-4.244995,39.151001,-11.431885,-12.011719,29.391479,40.487671
-41.644287,-64.300537,4.449463,36.508179,32.275391,-54.873657,-4.244995,39.151001,-11.431885,-15.139771,35.626221,40.487671
-41.644287,-64.300537,4.449463,35.421753,32.275391,-54.873657,-4.244995,37.237549,-11.431885,-15.139771,35.626221,36.383057
-45.211792,-55.749512,0.949097,35.421753,32.275391,-46.356201,12.426758,37.237549,-15.155029,-15.139771,35.626221,36.383057
-45.211792,-55.749512,0.949097,35.421753,32.019043,-46.356201,12.426758,37.237549,-15.155029,-18.502808,38.94043,36.383057
-45.211792,-55.749512,0.949097,34.918213,32.019043,-46.356201,12.426758,35.876465,-15.155029,-18.502808,38.94043,32.174683
-48.327637,-41.098022,-2.490234,34.918213,32.019043,-32.025146,12.426758,35.876465,-18.670654,-18.502808,38.94043,32.174683
-48.327637,-41.098022,-2.490234,34.918213,31.512451,-32.025146,25.442505,35.876465,-18.670654,-22.067261,40.509033,32.174683
-48.327637,-41.098022,-2.490234,34.918213,31.512451,-32.025146,25.442505,35.223389,-18.670654,-22.067261,40.509033,28.170776
-50.787354,-21.884155,-5.670166,34.765625,31.512451,-13.632202,25.442505,35.223389,-18.670654,-22.067261,40.509033,28.170776
-50.787354,-21.884155,-5.670166,34.765625,31.512451,-13.632202,33.03833,35.223389,-21.859741,-25.674438,41.055298,28.170776
-50.787354,-21.884155,-5.670166,34.765625,30.630493,-13.632202,33.03833,35.012817,-21.859741,-25.674438,41.055298,28.170776
-52.972412,-0.839233,-5.670166,34.591675,30.630493,-13.632202,33.03833,35.012817,-21.859741,-25.674438,41.055298,24.838257
-52.972412,-0.839233,-8.587646,34.591675,30.630493,5.947876,35.910034,35.012817,-24.710083,-25.674438,41.015625,24.838257
-52.972412,-0.839233,-8.587646,34.591675,29.403687,5.947876,35.910034,34.973145,-24.710083,-29.107666,41.015625,24.838257
-52.972412,-0.839233,-8.587646,34.176636,29.403687,5.947876,35.910034,34.973145,-24.710083,-29.107666,41.015625,22.485352
-55.599976,18.936157,-11.340332,34.176636,29.403687,23.629761,36.108398,34.973145,-27.618408,-29.107666,41.015625,22.485352
-55.599976,18.936157,-11.340332,34.176636,27.832031,23.629761,36.108398,34.973145,-27.618408,-32.348633,40.322876,22.485352
-55.599976,18.936157,-11.340332,33.361816,27.832031,23.629761,36.108398,34.664917,-27.618408,-32.348633,40.322876,21.19751
-59.277344,35.098267,-14.172363,33.361816,27.832031,37.27417,36.038208,34.664917,-30.813599,-32.348633,40.322876,21.19751
-59.277344,35.098267,-14.172363,33.361816,25.949097,37.27417,36.038208,34.664917,-30.813599,-35.528564,38.943481,21.19751
-59.277344,35.098267,-14.172363,32.223511,25.949097,37.27417,36.038208,33.999634,-30.813599,-35.528564,38.943481,20.666504
-63.674927,46.539307,-17.199707,32.223511,25.949097,46.157837,36.038208,33.999634,-34.457397,-35.528564,38.943481,20.666504
-63.674927,46.539307,-17.199707,32.223511,23.748779,46.157837,36.904907,33.999634,-34.457397,-38.934326,36.807251,20.666504
-63.674927,46.539307,-17.199707,32.223511,23.748779,46.157837,36.904907,32.870483,-34.457397,-38.934326,36.807251,20.443726
-67.260742,53.530884,-20.419312,30.822754,23.748779,50.949097,36.904907,32.870483,-34.457397,-38.934326,36.807251,20.443726
-67.260742,53.530884,-20.419312,30.822754,23.748779,50.949097,38.745117,32.870483,-38.165283,-42.657471,34.115601,20.443726
-67.260742,53.530884,-20.419312,30.822754,21.282959,50.949097,38.745117,31.506348,-38.165283,-42.657471,34.115601,20.443726
-67.538452,57.104492,-20.419312,29.248047,21.282959,50.949097,38.745117,31.506348,-38.165283,-42.657471,34.115601,20.028687
-67.538452,57.104492,-23.623657,29.248047,21.282959,52.993774,40.542603,31.506348,-41.567993,-42.657471,31.051636,20.028687
-67.538452,57.104492,-23.623657,29.248047,18.57605,52.993774,40.542603,29.934692,-41.567993,-46.530151,31.051636,20.028687
-67.538452,57.104492,-23.623657,27.471924,18.57605,52.993774,40.542603,29.934692,-41.567993,-46.530151,31.051636,19.168091
-62.060547,58.517456,-26.611328,27.471924,18.57605,53.689575,41.415405,29.934692,-44.348145,-46.530151,31.051636,19.168091
-62.060547,58.517456,-26.611328,27.471924,15.692139,53.689575,41.415405,29.934692,-44.348145,-50.112915,27.978516,19.168091
-62.060547,58.517456,-26.611328,25.479126,15.692139,53.689575,41.415405,28.274536,-44.348145,-50.112915,27.978516,17.825317
-49.517822,58.670044,-29.318237,25.479126,15.692139,53.83606,40.908813,28.274536,-46.792603,-50.112915,27.978516,17.825317
-49.517822,58.670044,-29.318237,25.479126,12.585449,53.83606,40.908813,28.274536,-46.792603,-53.060913,25.079346,17.825317
-49.517822,58.670044,-29.318237,23.196411,12.585449,53.83606,40.908813,26.385498,-46.792603,-53.060913,25.079346,16.19873
-30.609131,58.032227,-31.942749,23.196411,12.585449,53.720093,40.908813,26.385498,-49.429321,-53.060913,25.079346,16.19873
-30.609131,58.032227,-31.942749,23.196411,9.265137,53.720093,39.395142,26.385498,-49.429321,-55.389404,22.677612,16.19873
-30.609131,58.032227,-31.942749,23.196411,9.265137,53.720093,39.395142,24.267578,-49.429321,-55.389404,22.677612,14.468384
-7.922363,56.668091,-34.75647,20.681763,9.265137,53.201294,39.395142,24.267578,-49.429321,-55.389404,22.677612,14.468384
-7.922363,56.668091,-34.75647,20.681763,9.265137,53.201294,37.34436,24.267578,-52.926636,-57.659912,20.907593,14.468384
-7.922363,56.668091,-34.75647,20.681763,5.709839,53.201294,37.34436,21.820068,-52.926636,-57.659912,20.907593,14.468384
14.846802,54.595947,-34.75647,17.932129,5.709839,53.201294,37.34436,21.820068,-52.926636,-57.659912,20.907593,12.759399
14.846802,54.595947,-37.982178,17.932129,5.709839,52.157593,35.269165,21.820068,-57.089233,-57.659912,19.943237,12.759399
14.846802,54.595947,-37.982178,17.932129,2.029419,52.157593,35.269165,19.229126,-57.089233,-60.552979,19.943237,12.759399
14.846802,54.595947,-37.982178,15.032959,2.029419,52.157593,35.269165,19.229126,-57.089233,-60.552979,19.943237,10.980225
34.317017,51.812744,-41.45813,15.032959,2.029419,50.540161,33.148193,19.229126,-60.812378,-60.552979,19.943237,10.980225
34.317017,51.812744,-41.45813,15.032959,-1.657104,50.540161,33.148193,19.229126,-60.812378,-64.385986,19.7052,10.980225
34.317017,51.812744,-41.45813,11.962891,-1.657104,50.540161,33.148193,16.522217,-60.812378,-64.385986,19.7052,8.99353
48.397827,48.474121,-44.778442,11.962891,-1.657104,48.477173,30.987549,16.522217,-61.904907,-64.385986,19.7052,8.99353
48.397827,48.474121,-44.778442,11.962891,-5.218506,48.477173,30.987549,16.522217,-61.904907,-68.374634,20.059204,8.99353
48.397827,48.474121,-44.778442,8.752441,-5.218506,48.477173,30.987549,13.894653,-61.904907,-68.374634,20.059204,6.613159
56.796265,44.726563,-47.488403,8.752441,-5.218506,46.04187,30.987549,13.894653,-58.325195,-68.374634,20.059204,6.613159
56.796265,44.726563,-47.488403,8.752441,-8.69751,46.04187,28.723145,13.894653,-58.325195,-70.59021,20.593262,6.613159
56.796265,44.726563,-47.488403,8.752441,-8.69751,46.04187,28.723145,11.264038,-58.325195,-70.59021,20.593262,3.826904
60.598755,40.759277,-49.526978,5.426025,-8.69751,43.334961,28.723145,11.264038,-58.325195,-70.59021,20.593262,3.826904
60.598755,40.759277,-49.526978,5.426025,-8.69751,43.334961,26.73645,11.264038,-48.797607,-68.798828,21.02356,3.826904
60.598755,40.759277,-49.526978,5.426025,-12.194824,43.334961,26.73645,8.633423,-48.797607,-68.798828,21.02356,3.826904
61.505127,36.752319,-49.526978,2.105713,-12.194824,43.334961,26.73645,8.633423,-48.797607,-68.798828,21.02356,0.753784
61.505127,36.752319,-51.358032,2.105713,-12.194824,40.353394,25.354004,8.633423,-33.926392,-68.798828,20.996094,0.753784
61.505127,36.752319,-51.358032,2.105713,-15.893555,40.353394,25.354004,5.844116,-33.926392,-61.062622,20.996094,0.753784
61.505127,36.752319,-51.358032,-1.132202,-15.893555,40.353394,25.354004,5.844116,-33.926392,-61.062622,20.996094,-2.355957
60.961914,32.98645,-53.820801,-1.132202,-15.893555,37.252808,24.914551,5.844116,-15.914917,-61.062622,20.996094,-2.355957
60.961914,32.98645,-53.820801,-1.132202,-19.781494,37.252808,24.914551,5.844116,-15.914917,-46.826172,20.474243,-2.355957
60.961914,32.98645,-53.820801,-4.18396,-19.781494,37.252808,24.914551,2.966309,-15.914917,-46.826172,20.474243,-5.343628
59.823608,29.766846,-57.427979,-4.18396,-19.781494,34.255981,25.180054,2.966309,1.895142,-46.826172,20.474243,-5.343628
59.823608,29.766846,-57.427979,-4.18396,-23.712158,34.255981,25.180054,2.966309,1.895142,-27.444458,19.430542,-5.343628
59.823608,29.766846,-57.427979,-7.144165,-23.712158,34.255981,25.180054,-0.018311,1.895142,-27.444458,19.430542,-8.148193
58.279419,27.444458,-61.828613,-7.144165,-23.712158,31.719971,25.180054,-0.018311,16.607666,-27.444458,19.430542,-8.148193
58.279419,27.444458,-61.828613,-7.144165,-27.410889,31.719971,25.762939,-0.018311,16.607666,-5.74646,18.011475,-8.148193
58.279419,27.444458,-61.828613,-7.144165,-27.410889,31.719971,25.762939,-2.902222,16.607666,-5.74646,18.011475,-10.955811
56.268311,26.141357,-65.365601,-10.140991,-27.410889,29.888916,25.762939,-2.902222,16.607666,-5.74646,18.011475,-10.955811
56.268311,26.141357,-65.365601,-10.140991,-27.410889,29.888916,25.979614,-2.902222,26.434326,14.849854,16.220093,-10.955811
56.268311,26.141357,-65.365601,-10.140991,-30.74646,29.888916,25.979614,-5.74646,26.434326,14.849854,16.220093,-10.955811
53.662109,25.78125,-65.365601,-13.314819,-30.74646,29.888916,25.979614,-5.74646,26.434326,14.849854,16.220093,-13.95874
53.662109,25.78125,-65.579224,-13.314819,-30.74646,28.845215,25.57373,-5.74646,31.512451,14.849854,14.120483,-13.95874
53.662109,25.78125,-65.579224,-13.314819,-33.822632,28.845215,25.57373,-8.520508,31.512451,31.607056,14.120483,-13.95874
53.662109,25.78125,-65.579224,-16.656494,-33.822632,28.845215,25.57373,-8.520508,31.512451,31.607056,14.120483,-17.279053
50.488281,25.961304,-60.067749,-16.656494,-33.822632,28.378296,24.456787,-8.520508,33.129883,31.607056,14.120483,-17.279053
50.488281,25.961304,-60.067749,-16.656494,-37.026978,28.378296,24.456787,-8.520508,33.129883,43.1427,11.624146,-17.279053
50.488281,25.961304,-60.067749,-20.089722,-37.026978,28.378296,24.456787,-11.444092,33.129883,43.1427,11.624146,-20.782471
46.798706,26.196289,-47.702026,-20.089722,-37.026978,28.170776,22.976685,-11.444092,33.19397,43.1427,11.624146,-20.782471
46.798706,26.196289,-47.702026,-20.089722,-40.673828,28.170776,22.976685,-11.444092,33.19397,49.642944,8.847046,-20.782471
46.798706,26.196289,-47.702026,-23.443604,-40.673828,28.170776,22.976685,-14.520264,33.19397,49.642944,8.847046,-24.182129
42.681885,26.034546,-29.263306,-23.443604,-40.673828,27.816772,22.976685,-14.520264,33.02002,49.642944,8.847046,-24.182129
42.681885,26.034546,-29.263306,-23.443604,-44.818115,27.816772,21.350098,-14.520264,33.02002,52.279663,5.834961,-24.182129
42.681885,26.034546,-29.263306,-23.443604,-44.818115,27.816772,21.350098,-17.7948,33.02002,52.279663,5.834961,-27.18811
38.208008,25.283813,-7.427979,-26.687622,-44.818115,27.111816,21.350098,-17.7948,33.02002,52.279663,5.834961,-27.18811
38.208008,25.283813,-7.427979,-26.687622,-44.818115,27.111816,19.80896,-17.7948,33.172607,52.542114,2.816772,-27.18811
38.208008,25.283813,-7.427979,-26.687622,-49.023438,27.111816,19.80896,-21.014404,33.172607,52.542114,2.816772,-27.18811
33.612061,23.959351,-7.427979,-29.873657,-49.023438,27.111816,19.80896,-21.014404,33.172607,52.542114,2.816772,-29.800415
33.612061,23.959351,14.251709,-29.873657,-49.023438,25.961304,18.203735,-21.014404,33.248901,52.542114,-0.164795,-29.800415
33.612061,23.959351,14.251709,-29.873657,-52.709961,25.961304,18.203735,-24.087524,33.248901,51.541138,-0.164795,-29.800415
33.612061,23.959351,14.251709,-33.230591,-52.709961,25.961304,18.203735,-24.087524,33.248901,51.541138,-0.164795,-32.293701
29.25415,22.280884,32.48291,-33.230591,-52.709961,24.459839,16.497803,-24.087524,32.675171,51.541138,-0.164795,-32.293701
29.25415,22.280884,32.48291,-33.230591,-55.502319,24.459839,16.497803,-24.087524,32.675171,49.884033,-3.051758,-32.293701
29.25415,22.280884,32.48291,-36.813354,-55.502319,24.459839,16.497803,-26.855469,32.675171,49.884033,-3.051758,-35.140991
25.683594,20.376587,45.407104,-36.813354,-55.502319,22.714233,14.489746,-26.855469,30.853271,49.884033,-3.051758,-35.140991
25.683594,20.376587,45.407104,-36.813354,-57.675171,22.714233,14.489746,-26.855469,30.853271,47.683716,-6.002808,-35.140991
25.683594,20.376587,45.407104,-40.52124,-57.675171,22.714233,14.489746,-29.556274,30.853271,47.683716,-6.002808,-38.565063
23.287964,18.310547,52.838135,-40.52124,-57.675171,20.837402,14.489746,-29.556274,27.813721,47.683716,-6.002808,-38.565063
23.287964,18.310547,52.838135,-40.52124,-60.021973,20.837402,12.335205,-29.556274,27.813721,44.940186,-9.063721,-38.565063
23.287964,18.310547,52.838135,-40.52124,-60.021973,20.837402,12.335205,-32.333374,27.813721,44.940186,-9.063721,-42.407227
22.192383,15.966797,55.987549,-43.994141,-60.021973,18.826294,12.335205,-32.333374,27.813721,44.940186,-9.063721,-42.407227
22.192383,15.966797,55.987549,-43.994141,-60.021973,18.826294,9.970093,-32.333374,23.794556,41.629028,-12.310791,-42.407227
22.192383,15.966797,55.987549,-43.994141,-63.375854,18.826294,9.970093,-35.446167,23.794556,41.629028,-12.310791,-42.407227
22.055054,13.253784,55.987549,-46.942139,-63.375854,18.826294,9.970093,-35.446167,23.794556,41.629028,-12.310791,-46.060181
22.055054,13.253784,56.567383,-46.942139,-63.375854,16.717529,7.37915,-35.446167,19.381714,41.629028,-15.560913,-46.060181
22.055054,13.253784,56.567383,-46.942139,-67.63916,16.717529,7.37915,-38.735962,19.381714,37.838745,-15.560913,-46.060181
22.055054,13.253784,56.567383,-49.334717,-67.63916,16.717529,7.37915,-38.735962,19.381714,37.838745,-15.560913,-48.94104
22.280884,10.153198,56.09436,-49.334717,-67.63916,14.385986,4.483032,-38.735962,14.959717,37.838745,-15.560913,-48.94104
22.280884,10.153198,56.09436,-49.334717,-71.231079,14.385986,4.483032,-38.735962,14.959717,33.660889,-18.731689,-48.94104
22.280884,10.153198,56.09436,-51.644897,-71.231079,14.385986,4.483032,-41.983032,14.959717,33.660889,-18.731689,-50.906372
22.225952,6.826782,55.368042,-51.644897,-71.231079,11.804199,1.397705,-41.983032,10.934448,33.660889,-18.731689,-50.906372
22.225952,6.826782,55.368042,-51.644897,-71.896362,11.804199,1.397705,-41.983032,10.934448,29.238892,-21.688843,-50.906372
22.225952,6.826782,55.368042,-54.486084,-71.896362,11.804199,1.397705,-44.787598,10.934448,29.238892,-21.688843,-52.55127
21.566772,3.457642,54.611206,-54.486084,-71.896362,8.984375,1.397705,-44.787598,7.449341,29.238892,-21.688843,-52.55127
21.566772,3.457642,54.611206,-54.486084,-67.230225,8.984375,-1.876831,-44.787598,7.449341,24.743652,-24.591064,-52.55127
21.566772,3.457642,54.611206,-54.486084,-67.230225,8.984375,-1.876831,-47.189331,7.449341,24.743652,-24.591064,-54.815674
20.26062,0.222778,53.625488,-58.276367,-67.230225,6.054688,-1.876831,-47.189331,7.449341,24.743652,-24.591064,-54.815674
20.26062,0.222778,53.625488,-58.276367,-67.230225,6.054688,-5.065918,-47.189331,4.766846,20.513916,-27.593994,-54.815674
20.26062,0.222778,53.625488,-58.276367,-55.709839,6.054688,-5.065918,-49.420166,4.766846,20.513916,-27.593994,-54.815674
18.563843,-2.923584,53.625488,-62.420654,-55.709839,6.054688,-5.065918,-49.420166,4.766846,20.513916,-27.593994,-58.343506
18.563843,-2.923584,52.209473,-62.420654,-55.709839,3.137207,-8.151245,-49.420166,2.902222,20.513916,-30.92041,-58.343506
18.563843,-2.923584,52.209473,-62.420654,-37.850952,3.137207,-8.151245,-52.120972,2.902222,16.940308,-30.92041,-58.343506
18.563843,-2.923584,52.209473,-65.322876,-37.850952,3.137207,-8.151245,-52.120972,2.902222,16.940308,-30.92041,-62.582397
16.68396,-6.091309,50.192261,-65.322876,-37.850952,0.344849,-11.038208,-52.120972,1.916504,16.940308,-30.92041,-62.582397
16.68396,-6.091309,50.192261,-65.322876,-16.177368,0.344849,-11.038208,-52.120972,1.916504,14.453125,-34.484863,-62.582397
16.68396,-6.091309,50.192261,-65.097046,-16.177368,0.344849,-11.038208,-55.46875,1.916504,14.453125,-34.484863,-65.615845
14.691162,-9.457397,47.521973,-65.097046,-16.177368,-2.340698,-13.983154,-55.46875,1.461792,14.453125,-34.484863,-65.615845
14.691162,-9.457397,47.521973,-65.097046,5.578613,-2.340698,-13.983154,-55.46875,1.461792,13.22937,-38.095093,-65.615845
14.691162,-9.457397,47.521973,-59.875488,5.578613,-2.340698,-13.983154,-59.066772,1.461792,13.22937,-38.095093,-64.614868
12.442017,-13.006592,44.161987,-59.875488,5.578613,-4.992676,-13.983154,-59.066772,1.165771,13.22937,-38.095093,-64.614868
12.442017,-13.006592,44.161987,-59.875488,23.962402,-4.992676,-17.095947,-59.066772,1.165771,13.15918,-41.363525,-64.614868
12.442017,-13.006592,44.161987,-59.875488,23.962402,-4.992676,-17.095947,-61.425781,1.165771,13.15918,-41.363525,-57.119751
9.805298,-16.586304,40.188599,-48.867798,23.962402,-7.794189,-17.095947,-61.425781,1.165771,13.15918,-41.363525,-57.119751
9.805298,-16.586304,40.188599,-48.867798,23.962402,-7.794189,-20.46814,-61.425781,0.424194,13.812256,-44.250488,-57.119751
9.805298,-16.586304,40.188599,-48.867798,36.843872,-7.794189,-20.46814,-60.635376,0.424194,13.812256,-44.250488,-57.119751
6.735229,-19.927979,40.188599,-32.992554,36.843872,-7.794189,-20.46814,-60.635376,0.424194,13.812256,-44.250488,-42.25769
6.735229,-19.927979,35.81543,-32.992554,36.843872,-10.800171,-23.910522,-60.635376,-1.068115,13.812256,-46.92688,-42.25769
6.735229,-19.927979,35.81543,-32.992554,44.030762,-10.800171,-23.910522,-54.830933,-1.068115,14.663696,-46.92688,-42.25769
6.735229,-19.927979,35.81543,-14.529419,44.030762,-10.800171,-23.910522,-54.830933,-1.068115,14.663696,-46.92688,-21.484375
3.427124,-22.93396,31.506348,-14.529419,44.030762,-13.998413,-27.154541,-54.830933,-3.50647,14.663696,-46.92688,-21.484375
3.427124,-22.93396,31.506348,-14.529419,46.743774,-13.998413,-27.154541,-54.830933,-3.50647,15.234375,-49.972534,-21.484375
3.427124,-22.93396,31.506348,3.509521,46.743774,-13.998413,-27.154541,-43.417358,-3.50647,15.234375,-49.972534,1.858521
0.079346,-25.674438,27.801514,3.509521,46.743774,-17.205811,-30.007935,-43.417358,-6.63147,15.234375,-49.972534,1.858521
0.079346,-25.674438,27.801514,3.509521,46.813965,-17.205811,-30.007935,-43.417358,-6.63147,15.316772,-53.729248,1.858521
0.079346,-25.674438,27.801514,18.637085,46.813965,-17.205811,-30.007935,-27.191162,-6.63147,15.316772,-53.729248,23.657227
-3.140259,-28.494263,25.201416,18.637085,46.813965,-20.269775,-30.007935,-27.191162,-10.217285,15.316772,-53.729248,23.657227
-3.140259,-28.494263,25.201416,18.637085,45.724487,-20.269775,-32.626343,-27.191162,-10.217285,14.846802,-58.062744,23.657227
-3.140259,-28.494263,25.201416,18.637085,45.724487,-20.269775,-32.626343,-8.599854,-10.217285,14.846802,-58.062744,40.661621
-6.323242,-31.640625,23.828125,29.519653,45.724487,-23.141479,-32.626343,-8.599854,-10.217285,14.846802,-58.062744,40.661621
-6.323242,-31.640625,23.828125,29.519653,45.724487,-23.141479,-35.327148,-8.599854,-13.882446,13.928223,-61.87439,40.661621
-6.323242,-31.640625,23.828125,29.519653,44.219971,-23.141479,-35.327148,9.463501,-13.882446,13.928223,-61.87439,40.661621
-9.649658,-35.171509,23.828125,36.309814,44.219971,-23.141479,-35.327148,9.463501,-13.882446,13.928223,-61.87439,51.391602
-9.649658,-35.171509,23.428345,36.309814,44.219971,-26.013184,-38.522339,9.463501,-17.58728,13.928223,-63.470459,51.391602
-9.649658,-35.171509,23.428345,36.309814,42.327881,-26.013184,-38.522339,24.304199,-17.58728,12.606812,-63.470459,51.391602
-9.649658,-35.171509,23.428345,40.12146,42.327881,-26.013184,-38.522339,24.304199,-17.58728,12.606812,-63.470459,56.378174
-13.278198,-38.772583,23.416138,40.12146,42.327881,-29.098511,-42.111206,24.304199,-21.228027,12.606812,-63.470459,56.378174
-13.278198,-38.772583,23.416138,40.12146,39.846802,-29.098511,-42.111206,24.304199,-21.228027,10.931396,-60.916138,56.378174
-13.278198,-38.772583,23.416138,42.422485,39.846802,-29.098511,-42.111206,34.588623,-21.228027,10.931396,-60.916138,57.373047
-17.123413,-42.025757,23.205566,42.422485,39.846802,-32.568359,-45.794678,34.588623,-24.859619,10.931396,-60.916138,57.373047
-17.123413,-42.025757,23.205566,42.422485,36.59668,-32.568359,-45.794678,34.588623,-24.859619,8.901978,-53.103638,57.373047
-17.123413,-42.025757,23.205566,44.25354,36.59668,-32.568359,-45.794678,40.252686,-24.859619,8.901978,-53.103638,56.37207
-20.962524,-44.674683,22.402954,44.25354,36.59668,-36.236572,-45.794678,40.252686,-28.210449,8.901978,-53.103638,56.37207
-20.962524,-44.674683,22.402954,44.25354,32.69043,-36.236572,-48.913574,40.252686,-28.210449,6.613159,-40.057373,56.37207
-20.962524,-44.674683,22.402954,44.25354,32.69043,-36.236572,-48.913574,42.468262,-28.210449,6.613159,-40.057373,54.702759
-24.484253,-46.951294,21.005249,46.112061,32.69043,-39.718628,-48.913574,42.468262,-28.210449,6.613159,-40.057373,54.702759
-24.484253,-46.951294,21.005249,46.112061,32.69043,-39.718628,-51.333618,42.468262,-31.002808,4.141235,-23.31543,54.702759
-24.484253,-46.951294,21.005249,46.112061,28.347778,-39.718628,-51.333618,42.599487,-31.002808,4.141235,-23.31543,54.702759
-27.658081,-49.420166,21.005249,47.869873,28.347778,-39.718628,-51.333618,42.599487,-31.002808,4.141235,-23.31543,52.868652
-27.658081,-49.420166,19.192505,47.869873,28.347778,-42.584229,-53.311157,42.599487,-32.733154,4.141235,-5.206299,52.868652
-27.658081,-49.420166,19.192505,47.869873,23.825073,-42.584229,-53.311157,41.918945,-32.733154,1.586914,-5.206299,52.868652
-27.658081,-49.420166,19.192505,49.252319,23.825073,-42.584229,-53.311157,41.918945,-32.733154,1.586914,-5.206299,50.671387
-30.648804,-52.658081,17.218018,49.252319,23.825073,-44.784546,-55.841064,41.918945,-33.325195,1.586914,-5.206299,50.671387
-30.648804,-52.658081,17.218018,49.252319,19.314575,-44.784546,-55.841064,41.918945,-33.325195,-1.083374,11.727905,50.671387
-30.648804,-52.658081,17.218018,49.957275,19.314575,-44.784546,-55.841064,40.896606,-33.325195,-1.083374,11.727905,47.842407
-33.810425,-56.506348,15.133667,49.957275,19.314575,-46.722412,-59.457397,40.896606,-32.888794,-1.083374,11.727905,47.842407
-33.810425,-56.506348,15.133667,49.957275,15.048218,-46.722412,-59.457397,40.896606,-32.888794,-3.918457,25.735474,47.842407
-33.810425,-56.506348,15.133667,49.893188,15.048218,-46.722412,-59.457397,39.654541,-32.888794,-3.918457,25.735474,44.235229
-37.29248,-59.832764,12.850952,49.893188,15.048218,-49.145508,-59.457397,39.654541,-32.104492,-3.918457,25.735474,44.235229
-37.29248,-59.832764,12.850952,49.893188,11.294556,-49.145508,-63.882446,39.654541,-32.104492,-7.009888,36.016846,44.235229
-37.29248,-59.832764,12.850952,49.893188,11.294556,-49.145508,-63.882446,37.872314,-32.104492,-7.009888,36.016846,39.996338
-40.933228,-60.571289,10.202026,49.06311,11.294556,-52.46582,-63.882446,37.872314,-32.104492,-7.009888,36.016846,39.996338
-40.933228,-60.571289,10.202026,49.06311,11.294556,-52.46582,-67.034912,37.872314,-31.604004,-10.302734,42.919922,39.996338
-40.933228,-60.571289,10.202026,49.06311,8.444214,-52.46582,-67.034912,35.446167,-31.604004,-10.302734,42.919922,39.996338
-44.271851,-56.549072,10.202026,47.570801,8.444214,-52.46582,-67.034912,35.446167,-31.604004,-10.302734,42.919922,35.336304
-44.271851,-56.549072,7.168579,47.570801,8.444214,-56.332397,-66.897583,35.446167,-31.958008,-10.302734,47.213745,35.336304
-44.271851,-56.549072,7.168579,47.570801,6.729126,-56.332397,-66.897583,32.281494,-31.958008,-13.665771,47.213745,35.336304
-44.271851,-56.549072,7.168579,45.498657,6.729126,-56.332397,-66.897583,32.281494,-31.958008,-13.665771,47.213745,30.505371
-46.969604,-46.401978,3.863525,45.498657,6.729126,-59.231567,-60.961914,32.281494,-33.111572,-13.665771,47.213745,30.505371
-46.969604,-46.401978,3.863525,45.498657,6.185913,-59.231567,-60.961914,32.281494,-33.111572,-16.912842,49.893188,30.505371
-46.969604,-46.401978,3.863525,43.09082,6.185913,-59.231567,-60.961914,28.649902,-33.111572,-16.912842,49.893188,25.686646
-49.069214,-30.456543,0.552368,43.09082,6.185913,-58.984375,-48.199463,28.649902,-34.759521,-16.912842,49.893188,25.686646
-49.069214,-30.456543,0.552368,43.09082,6.47583,-58.984375,-48.199463,28.649902,-34.759521,-20.016479,51.547241,25.686646
-49.069214,-30.456543,0.552368,40.615845,6.47583,-58.984375,-48.199463,24.740601,-34.759521,-20.016479,51.547241,21.212769
-51.184082,-10.736084,-2.62146,40.615845,6.47583,-53.52478,-48.199463,24.740601,-36.312866,-20.016479,51.547241,21.212769
-51.184082,-10.736084,-2.62146,40.615845,7.073975,-53.52478,-29.528809,24.740601,-36.312866,-23.077393,52.554321,21.212769
-51.184082,-10.736084,-2.62146,40.615845,7.073975,-53.52478,-29.528809,20.974731,-36.312866,-23.077393,52.554321,17.468262
-54.013062,9.542847,-5.6427,38.470459,7.073975,-42.004395,-29.528809,20.974731,-36.312866,-23.077393,52.554321,17.468262
-54.013062,9.542847,-5.6427,38.470459,7.073975,-42.004395,-8.093262,20.974731,-37.677002,-26.345825,52.954102,17.468262
-54.013062,9.542847,-5.6427,38.470459,7.415771,-42.004395,-8.093262,17.590332,-37.677002,-26.345825,52.954102,17.468262
-57.806396,27.218628,-5.6427,36.904907,7.415771,-42.004395,-8.093262,17.590332,-37.677002,-26.345825,52.954102,14.920044
-57.806396,27.218628,-8.700562,36.904907,7.415771,-25.314331,12.289429,17.590332,-39.041138,-26.345825,52.844238,14.920044
-57.806396,27.218628,-8.700562,36.904907,7.177734,-25.314331,12.289429,15.011597,-39.041138,-29.910278,52.844238,14.920044
-57.806396,27.218628,-8.700562,36.016846,7.177734,-25.314331,12.289429,15.011597,-39.041138,-29.910278,52.844238,13.769531
-61.663818,40.118408,-11.941528,36.016846,7.177734,-6.011963,28.152466,15.011597,-41.082764,-29.910278,52.844238,13.769531
-61.663818,40.118408,-11.941528,36.016846,6.25,-6.011963,28.152466,15.011597,-41.082764,-33.648682,52.215576,13.769531
-61.663818,40.118408,-11.941528,35.614014,6.25,-6.011963,28.152466,13.388062,-41.082764,-33.648682,52.215576,13.864136
-63.595581,47.689819,-15.374756,35.614014,6.25,12.652588,37.976074,13.388062,-44.107056,-33.648682,52.215576,13.864136
-63.595581,47.689819,-15.374756,35.614014,4.766846,12.652588,37.976074,13.388062,-44.107056,-37.185669,51.199341,13.864136
-63.595581,47.689819,-15.374756,35.379028,4.766846,12.652588,37.976074,12.866211,-44.107056,-37.185669,51.199341,14.633179
-61.068726,50.762939,-18.780518,35.379028,4.766846,27.767944,37.976074,12.866211,-47.821045,-37.185669,51.199341,14.633179
-61.068726,50.762939,-18.780518,35.379028,2.859497,27.767944,42.089844,12.866211,-47.821045,-40.213013,49.749756,14.633179
-61.068726,50.762939,-18.780518,35.379028,2.859497,27.767944,42.089844,13.180542,-47.821045,-40.213013,49.749756,15.402222
-52.200317,50.927734,-21.920776,34.945679,2.859497,37.838745,42.089844,13.180542,-47.821045,-40.213013,49.749756,15.402222
-52.200317,50.927734,-21.920776,34.945679,2.859497,37.838745,42.462158,13.180542,-50.827026,-42.709351,47.921753,15.402222
-52.200317,50.927734,-21.920776,34.945679,0.671387,37.838745,42.462158,13.99231,-50.827026,-42.709351,47.921753,15.402222
-36.688232,49.645996,-21.920776,34.14917,0.671387,37.838745,42.462158,13.99231,-50.827026,-42.709351,47.921753,15.600586
-36.688232,49.645996,-24.658203,34.14917,0.671387,42.89856,41.207886,13.99231,-51.293945,-42.709351,45.64209,15.600586
-36.688232,49.645996,-24.658203,34.14917,-1.763916,42.89856,41.207886,14.709473,-51.293945,-45.135498,45.64209,15.600586
-36.688232,49.645996,-24.658203,32.91626,-1.763916,42.89856,41.207886,14.709473,-51.293945,-45.135498,45.64209,15.084839
-16.311646,47.821045,-27.175903,32.91626,-1.763916,44.226074,40.0177,14.709473,-47.396851,-45.135498,45.64209,15.084839
-16.311646,47.821045,-27.175903,32.91626,-4.370117,44.226074,40.0177,14.709473,-47.396851,-48.080444,43.057251,15.084839
-16.311646,47.821045,-27.175903,31.375122,-4.370117,44.226074,40.0177,15.0177,-47.396851,-48.080444,43.057251,13.973999
5.69458,45.593262,-29.785156,31.375122,-4.370117,43.453979,39.285278,15.0177,-38.55896,-48.080444,43.057251,13.973999
5.69458,45.593262,-29.785156,31.375122,-7.086182,43.453979,39.285278,15.0177,-38.55896,-51.843262,40.338135,13.973999
5.69458,45.593262,-29.785156,29.580688,-7.086182,43.453979,39.285278,14.620972,-38.55896,-51.843262,40.338135,12.55188
25.662231,42.758179,-32.766724,29.580688,-7.086182,41.921997,39.285278,14.620972,-25.491333,-51.843262,40.338135,12.55188
25.662231,42.758179,-32.766724,29.580688,-9.811401,41.921997,38.772583,14.620972,-25.491333,-55.81665,37.844849,12.55188
25.662231,42.758179,-32.766724,29.580688,-9.811401,41.921997,38.772583,13.644409,-25.491333,-55.81665,37.844849,10.925293
40.872192,39.041138,-36.062622,27.593994,-9.811401,40.206909,38.772583,13.644409,-25.491333,-55.81665,37.844849,10.925293
40.872192,39.041138,-36.062622,27.593994,-9.811401,40.206909,37.689209,13.644409,-10.391235,-58.450317,35.787964,10.925293
40.872192,39.041138,-36.062622,27.593994,-12.521362,40.206909,37.689209,12.130737,-10.391235,-58.450317,35.787964,10.925293
50.256348,34.481812,-36.062622,25.378418,-12.521362,40.206909,37.689209,12.130737,-10.391235,-58.450317,35.787964,9.051514
50.256348,34.481812,-39.312744,25.378418,-12.521362,38.323975,35.662842,12.130737,4.23584,-58.450317,34.356689,9.051514
50.256348,34.481812,-39.312744,25.378418,-15.200806,38.323975,35.662842,10.27832,4.23584,-57.598877,34.356689,9.051514
50.256348,34.481812,-39.312744,22.943115,-15.200806,38.323975,35.662842,10.27832,4.23584,-57.598877,34.356689,6.756592
54.486084,29.403687,-42.06543,22.943115,-15.200806,35.925293,32.543945,10.27832,16.201782,-57.598877,34.356689,6.756592
54.486084,29.403687,-42.06543,22.943115,-17.91687,35.925293,32.543945,10.27832,16.201782,-51.467896,33.383179,6.756592
54.486084,29.403687,-42.06543,20.263672,-17.91687,35.925293,32.543945,8.03833,16.201782,-51.467896,33.383179,4.016113
55.239868,24.368286,-44.216919,20.263672,-17.91687,32.797241,28.717041,8.03833,24.636841,-51.467896,33.383179,4.016113
55.239868,24.368286,-44.216919,20.263672,-20.617676,32.797241,28.717041,8.03833,24.636841,-39.431763,32.681274,4.016113
55.239868,24.368286,-44.216919,17.416382,-20.617676,32.797241,28.717041,5.456543,24.636841,-39.431763,32.681274,0.949097
54.373169,19.87915,-46.112061,17.416382,-20.617676,28.915405,28.717041,5.456543,29.745483,-39.431763,32.681274,0.949097
54.373169,19.87915,-46.112061,17.416382,-23.223877,28.915405,24.49646,5.456543,29.745483,-22.592163,31.872559,0.949097
54.373169,19.87915,-46.112061,17.416382,-23.223877,28.915405,24.49646,2.450562,29.745483,-22.592163,31.872559,-2.157593
53.106689,16.375732,-48.486328,14.367676,-23.223877,24.560547,24.49646,2.450562,29.745483,-22.592163,31.872559,-2.157593
53.106689,16.375732,-48.486328,14.367676,-23.223877,24.560547,20.404053,2.450562,32.730103,-3.408813,30.770874,-2.157593
53.106689,16.375732,-48.486328,14.367676,-25.610352,24.560547,20.404053,-0.790405,32.730103,-3.408813,30.770874,-2.157593
51.898193,14.044189,-48.486328,11.148071,-25.610352,24.560547,20.404053,-0.790405,32.730103,-3.408813,30.770874,-5.169678
51.898193,14.044189,-51.785278,11.148071,-25.610352,20.114136,16.665649,-0.790405,34.70459,-3.408813,29.217529,-5.169678
51.898193,14.044189,-51.785278,11.148071,-27.774048,20.114136,16.665649,-4.214478,34.70459,15.011597,29.217529,-5.169678
51.898193,14.044189,-51.785278,7.705688,-27.774048,20.114136,16.665649,-4.214478,34.70459,15.011597,29.217529,-8.111572
50.524902,12.939453,-55.6427,7.705688,-27.774048,16.046143,13.7146,-4.214478,36.560059,15.011597,29.217529,-8.111572
50.524902,12.939453,-55.6427,7.705688,-29.849243,16.046143,13.7146,-4.214478,36.560059,30.102539,27.297974,-8.111572
50.524902,12.939453,-55.6427,4.101563,-29.849243,16.046143,13.7146,-7.595825,36.560059,30.102539,27.297974,-11.227417
48.565674,12.875366,-58.517456,4.101563,-29.849243,12.722778,11.706543,-7.595825,38.406372,30.102539,27.297974,-11.227417
48.565674,12.875366,-58.517456,4.101563,-32.089233,12.722778,11.706543,-7.595825,38.406372,40.478516,25.033569,-11.227417
48.565674,12.875366,-58.517456,0.439453,-32.089233,12.722778,11.706543,-11.026001,38.406372,40.478516,25.033569,-14.697266
45.675659,13.528442,-58.132935,0.439453,-32.089233,10.470581,11.706543,-11.026001,40.106201,40.478516,25.033569,-14.697266
45.675659,13.528442,-58.132935,0.439453,-34.622192,10.470581,10.842896,-11.026001,40.106201,46.191406,22.558594,-14.697266
45.675659,13.528442,-58.132935,0.439453,-34.622192,10.470581,10.842896,-14.535522,40.106201,46.191406,22.558594,-18.502808
41.818237,14.395142,-52.331543,-3.106689,-34.622192,9.362793,10.842896,-14.535522,40.106201,46.191406,22.558594,-18.502808
41.818237,14.395142,-52.331543,-3.106689,-34.622192,9.362793,10.861206,-14.535522,41.241455,48.266602,19.802856,-18.502808
41.818237,14.395142,-52.331543,-3.106689,-37.411499,9.362793,10.861206,-18.347168,41.241455,48.266602,19.802856,-18.502808
37.194824,14.962769,-52.331543,-6.469727,-37.411499,9.362793,10.861206,-18.347168,41.241455,48.266602,19.802856,-22.332764
37.194824,14.962769,-40.209961,-6.469727,-37.411499,9.332275,11.428833,-18.347168,41.668701,48.266602,16.78772,-22.332764
37.194824,14.962769,-40.209961,-6.469727,-40.139771,9.332275,11.428833,-22.415161,41.668701,48.080444,16.78772,-22.332764
37.194824,14.962769,-40.209961,-9.637451,-40.139771,9.332275,11.428833,-22.415161,41.668701,48.080444,16.78772,-25.881958
32.247925,14.776611,-22.665405,-9.637451,-40.139771,10.025024,11.901855,-22.415161,41.247559,48.080444,16.78772,-25.881958
32.247925,14.776611,-22.665405,-9.637451,-42.553711,10.025024,11.901855,-22.415161,41.247559,46.691895,13.430786,-25.881958
32.247925,14.776611,-22.665405,-12.802124,-42.553711,10.025024,11.901855,-26.699829,41.247559,46.691895,13.430786,-29.013062
27.450562,13.68103,-2.380371,-12.802124,-42.553711,11.016846,11.975098,-26.699829,40.124512,46.691895,13.430786,-29.013062
27.450562,13.68103,-2.380371,-12.802124,-44.63501,11.016846,11.975098,-26.699829,40.124512,44.662476,9.848022,-29.013062
27.450562,13.68103,-2.380371,-16.079712,-44.63501,11.016846,11.975098,-30.877686,40.124512,44.662476,9.848022,-32.003784
23.327637,11.737061,17.205811,-16.079712,-44.63501,11.843872,11.975098,-30.877686,38.265991,44.662476,9.848022,-32.003784
23.327637,11.737061,17.205811,-16.079712,-46.792603,11.843872,11.380005,-30.877686,38.265991,42.025757,6.124878,-32.003784
23.327637,11.737061,17.205811,-16.079712,-46.792603,11.843872,11.380005,-34.87854,38.265991,42.025757,6.124878,-35.272217
20.245361,9.268188,33.026123,-19.537354,-46.792603,12.219238,11.380005,-34.87854,38.265991,42.025757,6.124878,-35.272217
20.245361,9.268188,33.026123,-19.537354,-46.792603,12.219238,10.348511,-34.87854,35.88562,38.66272,2.490234,-35.272217
20.245361,9.268188,33.026123,-19.537354,-49.563599,12.219238,10.348511,-38.577271,35.88562,38.66272,2.490234,-35.272217
18.395996,6.561279,33.026123,-23.031616,-49.563599,12.219238,10.348511,-38.577271,35.88562,38.66272,2.490234,-39.120483
18.395996,6.561279,43.466187,-23.031616,-49.563599,11.993408,8.984375,-38.577271,33.09021,38.66272,-1.019287,-39.120483
18.395996,6.561279,43.466187,-23.031616,-53.201294,11.993408,8.984375,-42.196655,33.09021,34.44519,-1.019287,-39.120483
18.395996,6.561279,43.466187,-26.379395,-53.201294,11.993408,8.984375,-42.196655,33.09021,34.44519,-1.019287,-43.362427
17.666626,3.799438,48.617554,-26.379395,-53.201294,11.227417,7.510376,-42.196655,30.285645,34.44519,-1.019287,-43.362427
17.666626,3.799438,48.617554,-26.379395,-57.052612,11.227417,7.510376,-42.196655,30.285645,29.437256,-4.351807,-43.362427
17.666626,3.799438,48.617554,-29.452515,-57.052612,11.227417,7.510376,-45.76416,30.285645,29.437256,-4.351807,-47.451782
17.721558,0.918579,49.905396,-29.452515,-57.052612,9.957886,5.786133,-45.76416,27.7771,29.437256,-4.351807,-47.451782
17.721558,0.918579,49.905396,-29.452515,-59.561157,9.957886,5.786133,-45.76416,27.7771,23.834229,-7.699585,-47.451782
17.721558,0.918579,49.905396,-32.37915,-59.561157,9.957886,5.786133,-49.301147,27.7771,23.834229,-7.699585,-50.814819
18.03894,-2.224731,49.176025,-32.37915,-59.561157,8.279419,5.786133,-49.301147,25.961304,23.834229,-7.699585,-50.814819
18.03894,-2.224731,49.176025,-32.37915,-58.554077,8.279419,3.762817,-49.301147,25.961304,17.944336,-11.120605,-50.814819
18.03894,-2.224731,49.176025,-32.37915,-58.554077,8.279419,3.762817,-52.450562,25.961304,17.944336,-11.120605,-53.424072
18.17627,-5.780029,47.940063,-35.36377,-58.554077,6.192017,3.762817,-52.450562,25.961304,17.944336,-11.120605,-53.424072
18.17627,-5.780029,47.940063,-35.36377,-58.554077,6.192017,1.257324,-52.450562,24.838257,12.081909,-14.709473,-53.424072
18.17627,-5.780029,47.940063,-35.36377,-52.224731,6.192017,1.257324,-54.968262,24.838257,12.081909,-14.709473,-53.424072
17.797852,-9.661865,47.940063,-38.653564,-52.224731,6.192017,1.257324,-54.968262,24.838257,12.081909,-14.709473,-55.895996
17.797852,-9.661865,46.813965,-38.653564,-52.224731,3.75061,-1.541138,-54.968262,24.359131,12.081909,-18.301392,-55.895996
17.797852,-9.661865,46.813965,-38.653564,-39.944458,3.75061,-1.541138,-56.619263,24.359131,6.640625,-18.301392,-55.895996
17.797852,-9.661865,46.813965,-42.181396,-39.944458,3.75061,-1.541138,-56.619263,24.359131,6.640625,-18.301392,-59.213257
16.824341,-13.671875,45.697021,-42.181396,-39.944458,0.98877,-4.571533,-56.619263,24.118042,6.640625,-18.301392,-59.213257
16.824341,-13.671875,45.697021,-42.181396,-22.821045,0.98877,-4.571533,-56.619263,24.118042,1.965332,-21.789551,-59.213257
16.824341,-13.671875,45.697021,-45.666504,-22.821045,0.98877,-4.571533,-57.769775,24.118042,1.965332,-21.789551,-63.806152
15.304565,-17.507935,44.036865,-45.666504,-22.821045,-1.992798,-7.583618,-57.769775,23.883057,1.965332,-21.789551,-63.806152
15.304565,-17.507935,44.036865,-45.666504,-3.359985,-1.992798,-7.583618,-57.769775,23.883057,-1.586914,-25.021362,-63.806152
15.304565,-17.507935,44.036865,-48.71521,-3.359985,-1.992798,-7.583618,-58.886719,23.883057,-1.586914,-25.021362,-68.780518
13.415527,-21.060181,41.394043,-48.71521,-3.359985,-5.172729,-7.583618,-58.886719,23.352051,-1.586914,-25.021362,-68.780518
13.415527,-21.060181,41.394043,-48.71521,15.313721,-5.172729,-10.705566,-58.886719,23.352051,-3.857422,-28.143311,-68.780518
13.415527,-21.060181,41.394043,-48.71521,15.313721,-5.172729,-10.705566,-60.568237,23.352051,-3.857422,-28.143311,-71.682739
11.297607,-24.398804,37.65564,-51.208496,15.313721,-8.511353,-10.705566,-60.568237,23.352051,-3.857422,-28.143311,-71.682739
11.297607,-24.398804,37.65564,-51.208496,15.313721,-8.511353,-14.022827,-60.568237,22.546387,-4.882813,-31.286621,-71.682739
11.297607,-24.398804,37.65564,-51.208496,30.654907,-8.511353,-14.022827,-62.667847,22.546387,-4.882813,-31.286621,-71.682739
9.085083,-27.813721,37.65564,-53.421021,30.654907,-8.511353,-14.022827,-62.667847,22.546387,-4.882813,-31.286621,-69.934082
9.085083,-27.813721,33.151245,-53.421021,30.654907,-12.081909,-17.797852,-62.667847,21.420288,-4.882813,-34.729004,-69.934082
9.085083,-27.813721,33.151245,-53.421021,41.345215,-12.081909,-17.797852,-64.343262,21.420288,-4.989624,-34.729004,-69.934082
9.085083,-27.813721,33.151245,-55.987549,41.345215,-12.081909,-17.797852,-64.343262,21.420288,-4.989624,-34.729004,-61.212158
6.799316,-31.533813,28.451538,-55.987549,41.345215,-15.823364,-21.920776,-64.343262,20.111084,-4.989624,-34.729004,-61.212158
6.799316,-31.533813,28.451538,-55.987549,47.576904,-15.823364,-21.920776,-64.343262,20.111084,-4.638672,-38.400269,-61.212158
6.799316,-31.533813,28.451538,-59.298706,47.576904,-15.823364,-21.920776,-63.922119,20.111084,-4.638672,-38.400269,-45.083618
4.452515,-35.510254,24.215698,-59.298706,47.576904,-19.677734,-26.242065,-63.922119,18.557739,-4.638672,-38.400269,-45.083618
4.452515,-35.510254,24.215698,-59.298706,50.485229,-19.677734,-26.242065,-63.922119,18.557739,-4.351807,-42.123413,-45.083618
4.452515,-35.510254,24.215698,-63.064575,50.485229,-19.677734,-26.242065,-59.741211,18.557739,-4.351807,-42.123413,-23.406982
1.934814,-39.413452,20.913696,-63.064575,50.485229,-23.513794,-26.242065,-59.741211,16.85791,-4.351807,-42.123413,-23.406982
1.934814,-39.413452,20.913696,-63.064575,51.516724,-23.513794,-30.288696,-59.741211,16.85791,-4.455566,-45.498657,-23.406982
1.934814,-39.413452,20.913696,-63.064575,51.516724,-23.513794,-30.288696,-50.622559,16.85791,-4.455566,-45.498657,0.12207
-0.808716,-42.935181,18.811035,-65.72876,51.516724,-27.301025,-30.288696,-50.622559,16.85791,-4.455566,-45.498657,0.12207
-0.808716,-42.935181,18.811035,-65.72876,51.516724,-27.301025,-33.917236,-50.622559,14.904785,-5.08728,-48.397827,0.12207
-0.808716,-42.935181,18.811035,-65.72876,51.712036,-27.301025,-33.917236,-36.877441,14.904785,-5.08728,-48.397827,0.12207
-3.823853,-45.907593,18.811035,-65.505981,51.712036,-27.301025,-33.917236,-36.877441,14.904785,-5.08728,-48.397827,21.450806
-3.823853,-45.907593,17.837524,-65.505981,51.712036,-31.097412,-37.017822,-36.877441,12.805176,-5.08728,-50.958252,21.450806
-3.823853,-45.907593,17.837524,-65.505981,51.538086,-31.097412,-37.017822,-19.979858,12.805176,-6.091309,-50.958252,21.450806
-3.823853,-45.907593,17.837524,-60.421753,51.538086,-31.097412,-37.017822,-19.979858,12.805176,-6.091309,-50.958252,37.527466
-7.015991,-48.635864,17.697144,-60.421753,51.538086,-35.134888,-39.898682,-19.979858,10.501099,-6.091309,-50.958252,37.527466
-7.015991,-48.635864,17.697144,-60.421753,50.924683,-35.134888,-39.898682,-19.979858,10.501099,-7.25708,-53.744507,37.527466
-7.015991,-48.635864,17.697144,-49.594116,50.924683,-35.134888,-39.898682,-2.471924,10.501099,-7.25708,-53.744507,47.290039
-10.220337,-51.669312,17.919922,-49.594116,50.924683,-39.532471,-42.681885,-2.471924,8.108521,-7.25708,-53.744507,47.290039
-10.220337,-51.669312,17.919922,-49.594116,49.667358,-39.532471,-42.681885,-2.471924,8.108521,-8.355713,-57.128906,47.290039
-10.220337,-51.669312,17.919922,-33.734131,49.667358,-39.532471,-42.681885,13.256836,8.108521,-8.355713,-57.128906,51.541138
-13.232422,-55.459595,18.032837,-33.734131,49.667358,-44.287109,-42.681885,13.256836,5.599976,-8.355713,-57.128906,51.541138
-13.232422,-55.459595,18.032837,-33.734131,47.601318,-44.287109,-45.48645,13.256836,5.599976,-9.344482,-61.05957,51.541138
-13.232422,-55.459595,18.032837,-33.734131,47.601318,-44.287109,-45.48645,25.430298,5.599976,-9.344482,-61.05957,52.209473
-16.009521,-59.762573,17.617798,-15.176392,47.601318,-49.050903,-45.48645,25.430298,5.599976,-9.344482,-61.05957,52.209473
-16.009521,-59.762573,17.617798,-15.176392,47.601318,-49.050903,-48.068237,25.430298,3.115845,-10.305786,-64.428711,52.209473
-16.009521,-59.762573,17.617798,-15.176392,44.818115,-49.050903,-48.068237,33.630371,3.115845,-10.305786,-64.428711,52.209473
-18.667603,-63.378906,17.617798,3.060913,44.818115,-49.050903,-48.068237,33.630371,3.115845,-10.305786,-64.428711,51.2146
-18.667603,-63.378906,16.497803,3.060913,44.818115,-53.414917,-50.393677,33.630371,0.631714,-10.305786,-65.472412,51.2146
-18.667603,-63.378906,16.497803,3.060913,41.522217,-53.414917,-50.393677,38.33313,0.631714,-11.450195,-65.472412,51.2146
-18.667603,-63.378906,16.497803,18.200684,41.522217,-53.414917,-50.393677,38.33313,0.631714,-11.450195,-65.472412,49.804688
-21.450806,-64.428711,14.61792,18.200684,41.522217,-57.040405,-52.493286,38.33313,-1.733398,-11.450195,-65.472412,49.804688
-21.450806,-64.428711,14.61792,18.200684,38.024902,-57.040405,-52.493286,38.33313,-1.733398,-12.887573,-62.207031,49.804688
-21.450806,-64.428711,14.61792,28.781128,38.024902,-57.040405,-52.493286,40.777588,-1.733398,-12.887573,-62.207031,48.309326
-24.499512,-60.995483,12.136841,28.781128,38.024902,-59.9823,-54.940796,40.777588,-4.122925,-12.887573,-62.207031,48.309326
-24.499512,-60.995483,12.136841,28.781128,34.60083,-59.9823,-54.940796,40.777588,-4.122925,-14.654541,-53.442383,48.309326
-24.499512,-60.995483,12.136841,34.790039,34.60083,-59.9823,-54.940796,41.97998,-4.122925,-14.654541,-53.442383,46.54541
-27.786255,-51.913452,9.231567,34.790039,34.60083,-62.548828,-54.940796,41.97998,-6.542969,-14.654541,-53.442383,46.54541
-27.786255,-51.913452,9.231567,34.790039,31.564331,-62.548828,-58.084106,41.97998,-6.542969,-16.604614,-39.263916,46.54541
-27.786255,-51.913452,9.231567,34.790039,31.564331,-62.548828,-58.084106,42.752075,-6.542969,-16.604614,-39.263916,44.177246
-30.993652,-37.554932,6.103516,37.420654,31.564331,-65.075684,-58.084106,42.752075,-6.542969,-16.604614,-39.263916,44.177246
-30.993652,-37.554932,6.103516,37.420654,31.564331,-65.075684,-61.984253,42.752075,-9.20105,-18.621826,-21.398926,44.177246
-30.993652,-37.554932,6.103516,37.420654,29.138184,-65.075684,-61.984253,43.240356,-9.20105,-18.621826,-21.398926,44.177246
-33.795166,-19.781494,6.103516,38.223267,29.138184,-65.075684,-61.984253,43.240356,-9.20105,-18.621826,-21.398926,41.085815
-33.795166,-19.781494,2.859497,38.223267,29.138184,-67.272949,-65.341187,43.240356,-12.054443,-18.621826,-2.44751,41.085815
-33.795166,-19.781494,2.859497,38.223267,27.532959,-67.272949,-65.341187,43.432617,-12.054443,-20.651245,-2.44751,41.085815
-33.795166,-19.781494,2.859497,38.467407,27.532959,-67.272949,-65.341187,43.432617,-12.054443,-20.651245,-2.44751,37.32605
-36.090088,-1.434326,-0.457764,38.467407,27.532959,-68.35022,-66.439819,43.432617,-15.06958,-20.651245,-2.44751,37.32605
-36.090088,-1.434326,-0.457764,38.467407,26.730347,-68.35022,-66.439819,43.432617,-15.06958,-22.827148,14.749146,37.32605
-36.090088,-1.434326,-0.457764,38.671875,26.730347,-68.35022,-66.439819,43.057251,-15.06958,-22.827148,14.749146,33.102417
-38.244629,14.700317,-3.915405,38.671875,26.730347,-66.96167,-63.290405,43.057251,-18.02063,-22.827148,14.749146,33.102417
-38.244629,14.700317,-3.915405,38.671875,26.577759,-66.96167,-63.290405,43.057251,-18.02063,-25.305176,28.286743,33.102417
-38.244629,14.700317,-3.915405,38.824463,26.577759,-66.96167,-63.290405,42.089844,-18.02063,-25.305176,28.286743,28.564453
-40.844727,26.730347,-7.565308,38.824463,26.577759,-61.550903,-63.290405,42.089844,-21.298218,-25.305176,28.286743,28.564453
-40.844727,26.730347,-7.565308,38.824463,26.721191,-61.550903,-54.63562,42.089844,-21.298218,-28.207397,37.399292,28.564453
-40.844727,26.730347,-7.565308,38.824463,26.721191,-61.550903,-54.63562,40.457153,-21.298218,-28.207397,37.399292,23.953247
-44.329834,34.213257,-11.477661,38.531494,26.721191,-51.242065,-54.63562,40.457153,-21.298218,-28.207397,37.399292,23.953247
-44.329834,34.213257,-11.477661,38.531494,26.721191,-51.242065,-40.530396,40.457153,-24.230957,-31.689453,42.593384,23.953247
-44.329834,34.213257,-11.477661,38.531494,26.800537,-51.242065,-40.530396,38.378906,-24.230957,-31.689453,42.593384,23.953247
-48.303223,37.860107,-11.477661,37.542725,26.800537,-51.242065,-40.530396,38.378906,-24.230957,-31.689453,42.593384,19.534302
-48.303223,37.860107,-15.588379,37.542725,26.800537,-36.502075,-22.955322,38.378906,-27.139282,-31.689453,44.903564,19.534302
-48.303223,37.860107,-15.588379,37.542725,26.519775,-36.502075,-22.955322,35.955811,-27.139282,-35.162354,44.903564,19.534302
-48.303223,37.860107,-15.588379,35.751343,26.519775,-36.502075,-22.955322,35.955811,-27.139282,-35.162354,44.903564,15.734863
-51.367188,39.096069,-19.775391,35.751343,26.519775,-19.110107,-4.763794,35.955811,-30.215454,-35.162354,45.516968,15.734863
-51.367188,39.096069,-19.775391,35.751343,25.78125,-19.110107,-4.763794,35.955811,-30.215454,-38.201904,45.516968,15.734863
-51.367188,39.096069,-19.775391,33.306885,25.78125,-19.110107,-4.763794,33.538818,-30.215454,-38.201904,45.516968,12.902832
-51.339722,39.208984,-23.834229,33.306885,25.78125,-1.690674,10.949707,33.538818,-33.679199,-38.201904,45.516968,12.902832
-51.339722,39.208984,-23.834229,33.306885,24.575806,-1.690674,10.949707,33.538818,-33.679199,-40.774536,45.126343,12.902832
-51.339722,39.208984,-23.834229,30.386353,24.575806,-1.690674,10.949707,31.335449,-33.679199,-40.774536,45.126343,11.230469
-46.160889,39.004517,-27.642822,30.386353,24.575806,13.287354,10.949707,31.335449,-37.243652,-40.774536,45.126343,11.230469
-46.160889,39.004517,-27.642822,30.386353,23.019409,13.287354,22.32666,31.335449,-37.243652,-43.228149,44.113159,11.230469
-46.160889,39.004517,-27.642822,30.386353,23.019409,13.287354,22.32666,29.714966,-37.243652,-43.228149,44.113159,10.559082
-34.844971,38.61084,-31.188965,27.243042,23.019409,24.209595,22.32666,29.714966,-37.243652,-43.228149,44.113159,10.559082
-34.844971,38.61084,-31.188965,27.243042,23.019409,24.209595,28.903198,29.714966,-40.55481,-46.188354,42.428589,10.559082
-34.844971,38.61084,-31.188965,27.243042,21.148682,24.209595,28.903198,28.775024,-40.55481,-46.188354,42.428589,10.559082
-18.200684,37.796021,-31.188965,24.090576,21.148682,24.209595,28.903198,28.775024,-40.55481,-46.188354,42.428589,10.488892
-18.200684,37.796021,-34.835815,24.090576,21.148682,30.834961,31.756592,28.775024,-43.154907,-46.188354,40.097046,10.488892
-18.200684,37.796021,-34.835815,24.090576,19.02771,30.834961,31.756592,28.613281,-43.154907,-50.05188,40.097046,10.488892
-18.200684,37.796021,-34.835815,21.270752,19.02771,30.834961,31.756592,28.613281,-43.154907,-50.05188,40.097046,10.482788
1.318359,36.190796,-38.687134,21.270752,19.02771,33.984375,32.415771,28.613281,-45.20874,-50.05188,37.081909,10.482788
1.318359,36.190796,-38.687134,21.270752,16.656494,33.984375,32.415771,28.613281,-45.20874,-54.504395,37.081909,10.482788
1.318359,36.190796,-38.687134,19.049072,16.656494,33.984375,32.415771,28.939819,-45.20874,-54.504395,37.081909,10.171509
20.330811,33.673096,-42.630005,19.049072,16.656494,35.058594,32.434082,28.939819,-47.201538,-54.504395,37.081909,10.171509
20.330811,33.673096,-42.630005,19.049072,14.086914,35.058594,32.434082,28.939819,-47.201538,-58.187866,33.563232,10.171509
20.330811,33.673096,-42.630005,17.672729,14.086914,35.058594,32.434082,29.53186,-47.201538,-58.187866,33.563232,9.344482
35.83374,30.319214,-46.459961,17.672729,14.086914,35.299683,32.434082,29.53186,-50.027466,-58.187866,33.563232,9.344482
35.83374,30.319214,-46.459961,17.672729,11.355591,35.299683,32.418823,29.53186,-50.027466,-59.078979,29.675293,9.344482
35.83374,30.319214,-46.459961,17.672729,11.355591,35.299683,32.418823,29.943848,-50.027466,-59.078979,29.675293,8.044434
46.099854,26.516724,-49.880981,17.089844,11.355591,35.440063,32.418823,29.943848,-50.027466,-59.078979,29.675293,8.044434
46.099854,26.516724,-49.880981,17.089844,11.355591,35.440063,32.476807,29.943848,-53.918457,-55.111694,25.71106,8.044434
46.099854,26.516724,-49.880981,17.089844,8.508301,35.440063,32.476807,30.020142,-53.918457,-55.111694,25.71106,8.044434
51.113892,22.714233,-49.880981,17.034912,8.508301,35.440063,32.476807,30.020142,-53.918457,-55.111694,25.71106,6.344604
51.113892,22.714233,-52.627563,17.034912,8.508301,35.562134,32.089233,30.020142,-58.261108,-55.111694,21.887207,6.344604
51.113892,22.714233,-52.627563,17.034912,5.514526,35.562134,32.089233,29.550171,-58.261108,-45.214844,21.887207,6.344604
51.113892,22.714233,-52.627563,17.019653,5.514526,35.562134,32.089233,29.550171,-58.261108,-45.214844,21.887207,4.342651
52.154541,19.418335,-54.797363,17.019653,5.514526,35.430908,30.960083,29.550171,-61.056519,-45.214844,18.609619,4.342651
52.154541,19.418335,-54.797363,17.019653,2.392578,35.430908,30.960083,29.550171,-61.056519,-29.827881,18.609619,4.342651
52.154541,19.418335,-54.797363,16.629028,2.392578,35.430908,30.960083,28.607178,-61.056519,-29.827881,18.609619,2.072144
51.034546,17.016602,-56.808472,16.629028,2.392578,34.689331,28.884888,28.607178,-60.20813,-29.827881,18.609619,2.072144
51.034546,17.016602,-56.808472,16.629028,-0.875854,34.689331,28.884888,28.607178,-60.20813,-10.955811,16.119385,2.072144
51.034546,17.016602,-56.808472,15.594482,-0.875854,34.689331,28.884888,27.148438,-60.20813,-10.955811,16.119385,-0.402832
49.194336,15.740967,-59.225464,15.594482,-0.875854,33.224487,28.884888,27.148438,-53.83606,-10.955811,16.119385,-0.402832
49.194336,15.740967,-59.225464,15.594482,-4.165649,33.224487,26.119995,27.148438,-53.83606,8.560181,14.685059,-0.402832
49.194336,15.740967,-59.225464,15.594482,-4.165649,33.224487,26.119995,25.305176,-53.83606,8.560181,14.685059,-3.045654
47.332764,15.515137,-62.1521,13.980103,-4.165649,31.109619,26.119995,25.305176,-53.83606,8.560181,14.685059,-3.045654
47.332764,15.515137,-62.1521,13.980103,-4.165649,31.109619,22.891235,25.305176,-41.741943,25.958252,14.208984,-3.045654
47.332764,15.515137,-62.1521,13.980103,-7.376099,31.109619,22.891235,23.043823,-41.741943,25.958252,14.208984,-3.045654
45.324707,16.036987,-62.1521,11.941528,-7.376099,31.109619,22.891235,23.043823,-41.741943,25.958252,14.208984,-5.770874
45.324707,16.036987,-64.813232,11.941528,-7.376099,28.62854,19.631958,23.043823,-25.332642,25.958252,14.474487,-5.770874
45.324707,16.036987,-64.813232,11.941528,-10.388184,28.62854,19.631958,20.535278,-25.332642,39.501953,14.474487,-5.770874
45.324707,16.036987,-64.813232,9.716797,-10.388184,28.62854,19.631958,20.535278,-25.332642,39.501953,14.474487,-8.621216
42.74292,16.738892,-65.756226,9.716797,-10.388184,26.089478,16.52832,20.535278,-7.568359,39.501953,15.002441,-8.621216
42.74292,16.738892,-65.756226,9.716797,-13.235474,26.089478,16.52832,20.535278,-7.568359,48.699951,15.002441,-8.621216
42.74292,16.738892,-65.756226,7.345581,-13.235474,26.089478,16.52832,17.767334,-7.568359,48.699951,15.002441,-11.630249
39.178467,17.095947,-63.067627,7.345581,-13.235474,23.803711,13.952637,17.767334,8.602905,48.699951,15.002441,-11.630249
39.178467,17.095947,-63.067627,7.345581,-16.052246,23.803711,13.952637,17.767334,8.602905,54.217529,15.420532,-11.630249
39.178467,17.095947,-63.067627,4.79126,-16.052246,23.803711,13.952637,14.926147,8.602905,54.217529,15.420532,-14.880371
34.655762,16.705322,-55.224609,4.79126,-16.052246,21.981812,13.952637,14.926147,20.93811,54.217529,15.420532,-14.880371
34.655762,16.705322,-55.224609,4.79126,-19.119263,21.981812,12.06665,14.926147,20.93811,57.159424,15.356445,-14.880371
34.655762,16.705322,-55.224609,4.79126,-19.119263,21.981812,12.06665,11.975098,20.93811,57.159424,15.356445,-18.313599
29.556274,15.50293,-41.995239,1.94397,-19.119263,20.812988,12.06665,11.975098,20.93811,57.159424,15.356445,-18.313599
29.556274,15.50293,-41.995239,1.94397,-19.119263,20.812988,11.129761,11.975098,28.939819,58.590698,14.749146,-18.313599
29.556274,15.50293,-41.995239,1.94397,-22.354126,20.812988,11.129761,9.008789,28.939819,58.590698,14.749146,-18.313599
24.536133,13.653564,-41.995239,-1.165771,-22.354126,20.812988,11.129761,9.008789,28.939819,58.590698,14.749146,-21.777344
24.536133,13.653564,-24.697876,-1.165771,-22.354126,20.309448,11.029053,9.008789,33.346558,58.590698,13.522339,-21.777344
24.536133,13.653564,-24.697876,-1.165771,-25.701904,20.309448,11.029053,5.941772,33.346558,59.146118,13.522339,-21.777344
24.536133,13.653564,-24.697876,-4.452515,-25.701904,20.309448,11.029053,5.941772,33.346558,59.146118,13.522339,-25.042725
20.178223,11.459351,-5.929565,-4.452515,-25.701904,20.437622,11.59668,5.941772,35.769653,59.146118,13.522339,-25.042725
20.178223,11.459351,-5.929565,-4.452515,-28.988647,20.437622,11.59668,5.941772,35.769653,59.075928,11.791992,-25.042725
20.178223,11.459351,-5.929565,-7.696533,-28.988647,20.437622,11.59668,2.865601,35.769653,59.075928,11.791992,-28.051758
16.925049,9.088135,11.410522,-7.696533,-28.988647,20.956421,12.298584,2.865601,37.484741,59.075928,11.791992,-28.051758
16.925049,9.088135,11.410522,-7.696533,-32.183838,20.956421,12.298584,2.865601,37.484741,58.36792,9.552002,-28.051758
16.925049,9.088135,11.410522,-10.852051,-32.183838,20.956421,12.298584,-0.256348,37.484741,58.36792,9.552002,-30.905151
14.874268,6.588745,25.045776,-10.852051,-32.183838,21.582031,12.298584,-0.256348,39.303589,58.36792,9.552002,-30.905151
14.874268,6.588745,25.045776,-10.852051,-35.403442,21.582031,12.805176,-0.256348,39.303589,57.022095,6.906128,-30.905151
14.874268,6.588745,25.045776,-10.852051,-35.403442,21.582031,12.805176,-3.274536,39.303589,57.022095,6.906128,-33.917236
13.934326,3.80249,34.103394,-13.922119,-35.403442,21.97876,12.805176,-3.274536,39.303589,57.022095,6.906128,-33.917236
13.934326,3.80249,34.103394,-13.922119,-35.403442,21.97876,12.731934,-3.274536,41.110229,55.026245,3.875732,-33.917236
13.934326,3.80249,34.103394,-13.922119,-38.922119,21.97876,12.731934,-6.286621,41.110229,55.026245,3.875732,-33.917236
13.778687,0.683594,34.103394,-17.062378,-38.922119,21.97876,12.731934,-6.286621,41.110229,55.026245,3.875732,-37.252808
13.778687,0.683594,39.059448,-17.062378,-38.922119,21.932983,12.142944,-6.286621,42.666626,55.026245,0.616455,-37.252808
13.778687,0.683594,39.059448,-17.062378,-42.892456,21.932983,12.142944,-9.27124,42.666626,52.432251,0.616455,-37.252808
13.778687,0.683594,39.059448,-20.349121,-42.892456,21.932983,12.142944,-9.27124,42.666626,52.432251,0.616455,-40.838623
14.035034,-2.731323,41.299438,-20.349121,-42.892456,21.31958,11.068726,-9.27124,43.551636,52.432251,0.616455,-40.838623
14.035034,-2.731323,41.299438,-20.349121,-47.198486,21.31958,11.068726,-9.27124,43.551636,49.230957,-2.844238,-40.838623
14.035034,-2.731323,41.299438,-23.742676,-47.198486,21.31958,11.068726,-12.42981,43.551636,49.230957,-2.844238,-44.250488
14.291382,-6.195068,42.321777,-23.742676,-47.198486,20.223999,9.732056,-12.42981,43.774414,49.230957,-2.844238,-44.250488
14.291382,-6.195068,42.321777,-23.742676,-51.35498,20.223999,9.732056,-12.42981,43.774414,45.477295,-6.378174,-44.250488
14.291382,-6.195068,42.321777,-27.023315,-51.35498,20.223999,9.732056,-15.750122,43.774414,45.477295,-6.378174,-47.073364
14.23645,-9.475708,43.173218,-27.023315,-51.35498,18.728638,9.732056,-15.750122,43.338013,45.477295,-6.378174,-47.073364
14.23645,-9.475708,43.173218,-27.023315,-54.888916,18.728638,8.09021,-15.750122,43.338013,41.290283,-10.058594,-47.073364
14.23645,-9.475708,43.173218,-27.023315,-54.888916,18.728638,8.09021,-19.277954,43.338013,41.290283,-10.058594,-49.215698
13.626099,-12.451172,44.158936,-30.029297,-54.888916,16.973877,8.09021,-19.277954,43.338013,41.290283,-10.058594,-49.215698
13.626099,-12.451172,44.158936,-30.029297,-54.888916,16.973877,6.176758,-19.277954,42.437744,36.984253,-13.809204,-49.215698
13.626099,-12.451172,44.158936,-30.029297,-57.617188,16.973877,6.176758,-22.802734,42.437744,36.984253,-13.809204,-49.215698
12.42981,-15.264893,44.158936,-32.666016,-57.617188,16.973877,6.176758,-22.802734,42.437744,36.984253,-13.809204,-51.199341
12.42981,-15.264893,45.062256,-32.666016,-57.617188,14.978027,3.833008,-22.802734,41.00647,36.984253,-17.651367,-51.199341
12.42981,-15.264893,45.062256,-32.666016,-59.988403,14.978027,3.833008,-26.300049,41.00647,32.940674,-17.651367,-51.199341
12.42981,-15.264893,45.062256,-35.125732,-59.988403,14.978027,3.833008,-26.300049,41.00647,32.940674,-17.651367,-53.839111
10.684204,-18.115234,45.388794,-35.125732,-59.988403,12.738037,1.208496,-26.300049,39.175415,32.940674,-21.432495,-53.839111
10.684204,-18.115234,45.388794,-35.125732,-62.799072,12.738037,1.208496,-26.300049,39.175415,29.589844,-21.432495,-53.839111
10.684204,-18.115234,45.388794,-37.615967,-62.799072,12.738037,1.208496,-29.663086,39.175415,29.589844,-21.432495,-57.717896
8.590698,-21.185303,44.781494,-37.615967,-62.799072,10.202026,-1.647949,-29.663086,36.987305,29.589844,-21.432495,-57.717896
8.590698,-21.185303,44.781494,-37.615967,-66.616821,10.202026,-1.647949,-29.663086,36.987305,27.11792,-25.12207,-57.717896
8.590698,-21.185303,44.781494,-40.304565,-66.616821,10.202026,-1.647949,-33.129883,36.987305,27.11792,-25.12207,-62.362671
6.32019,-24.356079,43.093872,-40.304565,-66.616821,7.421875,-1.647949,-33.129883,34.915161,27.11792,-25.12207,-62.362671
6.32019,-24.356079,43.093872,-40.304565,-70.910645,7.421875,-4.437256,-33.129883,34.915161,25.534058,-28.656006,-62.362671
6.32019,-24.356079,43.093872,-40.304565,-70.910645,7.421875,-4.437256,-36.776733,34.915161,25.534058,-28.656006,-66.05835
4.019165,-27.380371,40.487671,-43.060303,-70.910645,4.486084,-4.437256,-36.776733,34.915161,25.534058,-28.656006,-66.05835
4.019165,-27.380371,40.487671,-43.060303,-70.910645,4.486084,-7.174683,-36.776733,33.331299,24.572754,-32.211304,-66.05835
4.019165,-27.380371,40.487671,-43.060303,-73.895264,4.486084,-7.174683,-40.725708,33.331299,24.572754,-32.211304,-66.05835
1.690674,-29.986572,40.487671,-45.605469,-73.895264,4.486084,-7.174683,-40.725708,33.331299,24.572754,-32.211304,-66.18042
1.690674,-29.986572,37.280273,-45.605469,-73.895264,1.602173,-9.844971,-40.725708,32.687378,24.572754,-35.873413,-66.18042
1.690674,-29.986572,37.280273,-45.605469,-73.550415,1.602173,-9.844971,-44.689941,32.687378,23.916626,-35.873413,-66.18042
1.690674,-29.986572,37.280273,-47.662354,-73.550415,1.602173,-9.844971,-44.689941,32.687378,23.916626,-35.873413,-60.336304
-0.738525,-32.226563,33.914185,-47.662354,-73.550415,-1.138306,-12.698364,-44.689941,32.928467,23.916626,-39.785767,-60.336304
-0.738525,-32.226563,33.914185,-47.662354,-67.559814,-1.138306,-12.698364,-44.689941,32.928467,23.245239,-39.785767,-60.336304
-0.738525,-32.226563,33.914185,-49.328613,-67.559814,-1.138306,-12.698364,-48.397827,32.928467,23.245239,-39.785767,-47.463989
-3.424072,-34.47876,30.783081,-49.328613,-67.559814,-3.674316,-15.753174,-48.397827,33.80127,23.245239,-39.785767,-47.463989
-3.424072,-34.47876,30.783081,-49.328613,-54.73938,-3.674316,-15.753174,-48.397827,33.80127,22.393799,-43.765259,-47.463989
-3.424072,-34.47876,30.783081,-50.98877,-54.73938,-3.674316,-15.753174,-51.513672,33.80127,22.393799,-43.765259,-28.610229
-6.399536,-37.295532,28.240967,-50.98877,-54.73938,-6.14624,-15.753174,-51.513672,34.655762,22.393799,-43.765259,-28.610229
-6.399536,-37.295532,28.240967,-50.98877,-35.931396,-6.14624,-19.052124,-51.513672,34.655762,21.24939,-47.625732,-28.610229
-6.399536,-37.295532,28.240967,-50.98877,-35.931396,-6.14624,-19.052124,-54.23584,34.655762,21.24939,-47.625732,-6.610107
-9.616089,-40.826416,26.422119,-53.225708,-35.931396,-8.709717,-19.052124,-54.23584,34.655762,21.24939,-47.625732,-6.610107
-9.616089,-40.826416,26.422119,-53.225708,-35.931396,-8.709717,-22.271729,-54.23584,35.113525,19.821167,-51.095581,-6.610107
-9.616089,-40.826416,26.422119,-53.225708,-13.796997,-8.709717,-22.271729,-56.976318,35.113525,19.821167,-51.095581,-6.610107
-12.838745,-44.549561,26.422119,-56.152344,-13.796997,-8.709717,-22.271729,-56.976318,35.113525,19.821167,-51.095581,14.828491
-12.838745,-44.549561,25.314331,-56.152344,-13.796997,-11.49292,-25.335693,-56.976318,34.848022,19.821167,-54.25415,14.828491
-12.838745,-44.549561,25.314331,-56.152344,8.068848,-11.49292,-25.335693,-60.443115,34.848022,18.078613,-54.25415,14.828491
-12.838745,-44.549561,25.314331,-59.158325,8.068848,-11.49292,-25.335693,-60.443115,34.848022,18.078613,-54.25415,32.601929
-15.844727,-47.027588,24.673462,-59.158325,8.068848,-14.450073,-28.103638,-60.443115,34.066772,18.078613,-57.357788,32.601929
-15.844727,-47.027588,24.673462,-59.158325,26.49231,-14.450073,-28.103638,-60.443115,34.066772,16.052246,-57.357788,32.601929
-15.844727,-47.027588,24.673462,-60.702515,26.49231,-14.450073,-28.103638,-64.660645,34.066772,16.052246,-57.357788,45.068359
-18.508911,-46.463013,24.206543,-60.702515,26.49231,-17.453003,-30.865479,-64.660645,32.922363,16.052246,-57.357788,45.068359
-18.508911,-46.463013,24.206543,-60.702515,39.675903,-17.453003,-30.865479,-64.660645,32.922363,13.726807,-60.864258,45.068359
-18.508911,-46.463013,24.206543,-58.901978,39.675903,-17.453003,-30.865479,-68.615723,32.922363,13.726807,-60.864258,52.371216
-20.947266,-41.333008,23.59314,-58.901978,39.675903,-20.285034,-30.865479,-68.615723,31.707764,13.726807,-60.864258,52.371216
-20.947266,-41.333008,23.59314,-58.901978,47.631836,-20.285034,-33.792114,-68.615723,31.707764,11.14502,-64.752197,52.371216
-20.947266,-41.333008,23.59314,-58.901978,47.631836,-20.285034,-33.792114,-70.535278,31.707764,11.14502,-64.752197,55.813599
-23.394775,-31.219482,22.637939,-52.227783,47.631836,-22.930908,-33.792114,-70.535278,31.707764,11.14502,-64.752197,55.813599
-23.394775,-31.219482,22.637939,-52.227783,47.631836,-22.930908,-37.078857,-70.535278,30.349731,8.309937,-68.215942,55.813599
-23.394775,-31.219482,22.637939,-52.227783,51.596069,-22.930908,-37.078857,-68.878174,30.349731,8.309937,-68.215942,55.813599
-26.116943,-17.068481,22.637939,-40.396118,51.596069,-22.930908,-37.078857,-68.878174,30.349731,8.309937,-68.215942,57.052612
-26.116943,-17.068481,21.224976,-40.396118,51.596069,-25.479126,-40.45105,-68.878174,28.805542,8.309937,-69.763184,57.052612
-26.116943,-17.068481,21.224976,-40.396118,53.305054,-25.479126,-40.45105,-61.8927,28.805542,5.26123,-69.763184,57.052612
-26.116943,-17.068481,21.224976,-24.554443,53.305054,-25.479126,-40.45105,-61.8927,28.805542,5.26123,-69.763184,57.284546
-29.089355,-1.031494,19.37561,-24.554443,53.305054,-28.189087,-43.630981,-61.8927,26.831055,5.26123,-67.919922,57.284546
-29.089355,-1.031494,19.37561,-24.554443,54.074097,-28.189087,-43.630981,-61.8927,26.831055,2.01416,-67.919922,57.284546
-29.089355,-1.031494,19.37561,-7.116699,54.074097,-28.189087,-43.630981,-49.27063,26.831055,2.01416,-67.919922,57.070923
-32.138062,14.385986,17.102051,-7.116699,54.074097,-31.195068,-46.234131,-49.27063,24.526978,2.01416,-67.919922,57.070923
-32.138062,14.385986,17.102051,-7.116699,54.541016,-31.195068,-46.234131,-49.27063,24.526978,-1.318359,-61.193848,57.070923
-32.138062,14.385986,17.102051,9.249878,54.541016,-31.195068,-46.234131,-32.125854,24.526978,-1.318359,-61.193848,56.408691
-35.26001,27.072144,14.505005,9.249878,54.541016,-34.432983,-46.234131,-32.125854,21.92688,-1.318359,-61.193848,56.408691
-35.26001,27.072144,14.505005,9.249878,54.702759,-34.432983,-48.516846,-32.125854,21.92688,-4.666138,-49.264526,56.408691
-35.26001,27.072144,14.505005,9.249878,54.702759,-34.432983,-48.516846,-13.024902,21.92688,-4.666138,-49.264526,55.197144
-37.744141,36.062622,11.64856,22.396851,54.702759,-37.557983,-48.516846,-13.024902,21.92688,-4.666138,-49.264526,55.197144
-37.744141,36.062622,11.64856,22.396851,54.702759,-37.557983,-50.946045,-13.024902,19.354248,-7.897949,-33.093262,55.197144
-37.744141,36.062622,11.64856,22.396851,54.364014,-37.557983,-50.946045,5.249023,19.354248,-7.897949,-33.093262,55.197144
-39.804077,41.500854,11.64856,31.45752,54.364014,-37.557983,-50.946045,5.249023,19.354248,-7.897949,-33.093262,53.356934
-39.804077,41.500854,8.639526,31.45752,54.364014,-40.261841,-54.290771,5.249023,16.8396,-7.897949,-14.907837,53.356934
-39.804077,41.500854,8.639526,31.45752,53.381348,-40.261841,-54.290771,20.309448,16.8396,-11.001587,-14.907837,53.356934
-39.804077,41.500854,8.639526,36.782837,53.381348,-40.261841,-54.290771,20.309448,16.8396,-11.001587,-14.907837,50.939941
-42.098999,44.396973,5.535889,36.782837,53.381348,-42.416382,-58.633423,20.309448,14.431763,-11.001587,2.764893,50.939941
-42.098999,44.396973,5.535889,36.782837,51.852417,-42.416382,-58.633423,20.309448,14.431763,-14.025879,2.764893,50.939941
-42.098999,44.396973,5.535889,39.569092,51.852417,-42.416382,-58.633423,31.14624,14.431763,-14.025879,2.764893,47.949219
-45.257568,45.925903,2.383423,39.569092,51.852417,-44.396973,-63.22937,31.14624,11.868286,-14.025879,2.764893,47.949219
-45.257568,45.925903,2.383423,39.569092,49.902344,-44.396973,-63.22937,31.14624,11.868286,-17.111206,17.669678,47.949219
-45.257568,45.925903,2.383423,41.094971,49.902344,-44.396973,-63.22937,37.872314,11.868286,-17.111206,17.669678,44.3573
-49.349976,47.003174,-0.866699,41.094971,49.902344,-46.762085,-63.22937,37.872314,9.069824,-17.111206,17.669678,44.3573
-49.349976,47.003174,-0.866699,41.094971,47.674561,-46.762085,-65.997314,37.872314,9.069824,-20.336914,28.720093,44.3573
-49.349976,47.003174,-0.866699,41.094971,47.674561,-46.762085,-65.997314,41.589355,9.069824,-20.336914,28.720093,40.106201
-53.359985,47.964478,-4.193115,42.294312,47.674561,-49.966431,-65.997314,41.589355,9.069824,-20.336914,28.720093,40.106201
-53.359985,47.964478,-4.193115,42.294312,47.674561,-49.966431,-65.039063,41.589355,5.895996,-23.71521,35.858154,40.106201
-53.359985,47.964478,-4.193115,42.294312,45.178223,-49.966431,-65.039063,43.441772,5.895996,-23.71521,35.858154,40.106201
-55.371094,48.745728,-4.193115,43.426514,45.178223,-49.966431,-65.039063,43.441772,5.895996,-23.71521,35.858154,35.38208
-55.371094,48.745728,-7.583618,43.426514,45.178223,-53.7323,-58.633423,43.441772,2.578735,-23.71521,39.953613,35.38208
-55.371094,48.745728,-7.583618,43.426514,42.492676,-53.7323,-58.633423,44.430542,2.578735,-27.108765,39.953613,35.38208
-55.371094,48.745728,-7.583618,44.363403,42.492676,-53.7323,-58.633423,44.430542,2.578735,-27.108765,39.953613,30.581665
-53.112793,48.983765,-10.88562,44.363403,42.492676,-56.872559,-46.682739,44.430542,-0.814819,-27.108765,42.037964,30.581665
-53.112793,48.983765,-10.88562,44.363403,39.804077,-56.872559,-46.682739,44.430542,-0.814819,-30.349731,42.037964,30.581665
-53.112793,48.983765,-10.88562,44.735718,39.804077,-56.872559,-46.682739,44.909668,-0.814819,-30.349731,42.037964,26.330566
-45.193481,48.413086,-13.980103,44.735718,39.804077,-57.48291,-30.560303,44.909668,-4.067993,-30.349731,42.037964,26.330566
-45.193481,48.413086,-13.980103,44.735718,37.487793,-57.48291,-30.560303,44.909668,-4.067993,-33.364868,43.029785,26.330566
-45.193481,48.413086,-13.980103,44.30542,37.487793,-57.48291,-30.560303,45.080566,-4.067993,-33.364868,43.029785,23.101807
-31.655884,46.884155,-16.799927,44.30542,37.487793,-53.741455,-30.560303,45.080566,-7.333374,-33.364868,43.029785,23.101807
-31.655884,46.884155,-16.799927,44.30542,35.910034,-53.741455,-13.046265,45.080566,-7.333374,-36.343384,43.295288,23.101807
-31.655884,46.884155,-16.799927,44.30542,35.910034,-53.741455,-13.046265,44.845581,-7.333374,-36.343384,43.295288,21.066284
-14.263916,44.506836,-19.464111,42.990112,35.910034,-44.665527,-13.046265,44.845581,-7.333374,-36.343384,43.295288,21.066284
-14.263916,44.506836,-19.464111,42.990112,35.910034,-44.665527,3.063965,44.845581,-10.671997,-39.526367,42.984009,21.066284
-14.263916,44.506836,-19.464111,42.990112,35.284424,-44.665527,3.063965,44.302368,-10.671997,-39.526367,42.984009,21.066284
4.031372,41.519165,-19.464111,40.939331,35.284424,-44.665527,3.063965,44.302368,-10.671997,-39.526367,42.984009,19.937134
4.031372,41.519165,-22.177124,40.939331,35.284424,-30.822754,15.649414,44.302368,-14.297485,-39.526367,41.949463,19.937134
4.031372,41.519165,-22.177124,40.939331,35.449219,-30.822754,15.649414,43.429565,-14.297485,-43.084717,41.949463,19.937134
4.031372,41.519165,-22.177124,38.366699,35.449219,-30.822754,15.649414,43.429565,-14.297485,-43.084717,41.949463,19.213867
19.955444,38.299561,-25.149536,38.366699,35.449219,-14.151001,24.160767,43.429565,-18.07251,-43.084717,40.24353,19.213867
19.955444,38.299561,-25.149536,38.366699,35.998535,-14.151001,24.160767,43.429565,-18.07251,-46.859741,40.24353,19.213867
19.955444,38.299561,-25.149536,35.635376,35.998535,-14.151001,24.160767,42.297363,-18.07251,-46.859741,40.24353,18.377686
31.292725,35.211182,-28.329468,35.635376,35.998535,2.575684,29.177856,42.297363,-21.884155,-46.859741,40.24353,18.377686
31.292725,35.211182,-28.329468,35.635376,36.401367,2.575684,29.177856,42.297363,-21.884155,-50.460815,37.915039,18.377686
31.292725,35.211182,-28.329468,33.065796,36.401367,2.575684,29.177856,40.734863,-21.884155,-50.460815,37.915039,17.208862
37.469482,32.620239,-31.488037,33.065796,36.401367,16.848755,29.177856,40.734863,-25.375366,-50.460815,37.915039,17.208862
37.469482,32.620239,-31.488037,33.065796,36.303711,16.848755,32.165527,40.734863,-25.375366,-53.436279,35.20813,17.208862
37.469482,32.620239,-31.488037,33.065796,36.303711,16.848755,32.165527,38.739014,-25.375366,-53.436279,35.20813,15.69519
39.529419,30.715942,-34.274292,31.021118,36.303711,27.157593,32.165527,38.739014,-25.375366,-53.436279,35.20813,15.69519
39.529419,30.715942,-34.274292,31.021118,36.303711,27.157593,34.292603,38.739014,-28.573608,-55.743408,32.296753,15.69519
39.529419,30.715942,-34.274292,31.021118,35.595703,27.157593,34.292603,36.239624,-28.573608,-55.743408,32.296753,15.69519
39.227295,29.571533,-34.274292,29.690552,35.595703,27.157593,34.292603,36.239624,-28.573608,-55.743408,32.296753,14.007568
39.227295,29.571533,-36.608887,29.690552,35.595703,33.36792,36.376953,36.239624,-31.515503,-55.743408,29.455566,14.007568
39.227295,29.571533,-36.608887,29.690552,34.423828,33.36792,36.376953,33.563232,-31.515503,-57.809448,29.455566,14.007568
39.227295,29.571533,-36.608887,29.11377,34.423828,33.36792,36.376953,33.563232,-31.515503,-57.809448,29.455566,12.197876
38.208008,29.022217,-38.787842,29.11377,34.423828,36.373901,38.406372,33.563232,-34.588623,-57.809448,26.846313,12.197876
38.208008,29.022217,-38.787842,29.11377,32.946777,36.373901,38.406372,33.563232,-34.588623,-60.43396,26.846313,12.197876
38.208008,29.022217,-38.787842,29.055786,32.946777,36.373901,38.406372,31.021118,-34.588623,-60.43396,26.846313,10.223389
37.277222,28.808594,-41.433716,29.055786,32.946777,37.567139,40.185547,31.021118,-37.887573,-60.43396,26.846313,10.223389
37.277222,28.808594,-41.433716,29.055786,31.277466,37.567139,40.185547,31.021118,-37.887573,-64.068604,24.758911,10.223389
37.277222,28.808594,-41.433716,29.174805,31.277466,37.567139,40.185547,29.0802,-37.887573,-64.068604,24.758911,7.940674
36.404419,28.582764,-45.013428,29.174805,31.277466,38.05542,40.185547,29.0802,-41.403198,-64.068604,24.758911,7.940674
36.404419,28.582764,-45.013428,29.174805,29.333496,38.05542,41.348267,29.0802,-41.403198,-68.276978,23.303223,7.940674
36.404419,28.582764,-45.013428,29.174805,29.333496,38.05542,41.348267,27.859497,-41.403198,-68.276978,23.303223,5.31311
34.991455,28.091431,-49.353027,29.074097,29.333496,38.485718,41.348267,27.859497,-41.403198,-68.276978,23.303223,5.31311
34.991455,28.091431,-49.353027,29.074097,29.333496,38.485718,41.870117,27.859497,-44.689941,-71.255493,22.613525,5.31311
34.991455,28.091431,-49.353027,29.074097,27.029419,38.485718,41.870117,27.337646,-44.689941,-71.255493,22.613525,5.31311
32.501221,27.142334,-49.353027,28.555298,27.029419,38.485718,41.870117,27.337646,-44.689941,-71.255493,22.613525,2.404785
32.501221,27.142334,-53.234863,28.555298,27.029419,38.931274,41.702271,27.337646,-47.479248,-71.255493,22.506714,2.404785
32.501221,27.142334,-53.234863,28.555298,24.313354,38.931274,41.702271,27.13623,-47.479248,-70.999146,22.506714,2.404785
32.501221,27.142334,-53.234863,27.536011,24.313354,38.931274,41.702271,27.13623,-47.479248,-70.999146,22.506714,-0.585938
28.674316,25.750732,-54.754639,27.536011,24.313354,39.230347,41.02478,27.13623,-49.624634,-70.999146,22.741699,-0.585938
28.674316,25.750732,-54.754639,27.536011,21.322632,39.230347,41.02478,27.13623,-49.624634,-65.24353,22.741699,-0.585938
28.674316,25.750732,-54.754639,26.156616,21.322632,39.230347,41.02478,26.989746,-49.624634,-65.24353,22.741699,-3.591919
23.7854,23.962402,-51.904297,26.156616,21.322632,39.169312,39.749146,26.989746,-51.669312,-65.24353,22.741699,-3.591919
23.7854,23.962402,-51.904297,26.156616,18.231201,39.169312,39.749146,26.989746,-51.669312,-52.920532,22.909546,-3.591919
23.7854,23.962402,-51.904297,24.520874,18.231201,39.169312,39.749146,26.574707,-51.669312,-52.920532,22.909546,-6.619263
18.362427,21.932983,-43.637085,24.520874,18.231201,38.677979,39.749146,26.574707,-54.159546,-52.920532,22.909546,-6.619263
18.362427,21.932983,-43.637085,24.520874,15.216064,38.677979,37.976074,26.574707,-54.159546,-34.719849,22.772217,-6.619263
18.362427,21.932983,-43.637085,24.520874,15.216064,38.677979,37.976074,25.915527,-54.159546,-34.719849,22.772217,-9.832764
13.104248,19.729614,-30.389404,22.714233,15.216064,37.722778,37.976074,25.915527,-54.159546,-34.719849,22.772217,-9.832764
13.104248,19.729614,-30.389404,22.714233,15.216064,37.722778,35.705566,25.915527,-57.559204,-13.079834,22.125244,-9.832764
13.104248,19.729614,-30.389404,22.714233,12.246704,37.722778,35.705566,24.972534,-57.559204,-13.079834,22.125244,-9.832764
8.615112,17.388916,-30.389404,20.706177,12.246704,37.722778,35.705566,24.972534,-57.559204,-13.079834,22.125244,-13.290405
8.615112,17.388916,-14.160156,20.706177,12.246704,36.343384,33.300781,24.972534,-61.273193,-13.079834,21.066284,-13.290405
8.615112,17.388916,-14.160156,20.706177,9.225464,36.343384,33.300781,23.867798,-61.273193,8.721924,21.066284,-13.290405
8.615112,17.388916,-14.160156,18.47229,9.225464,36.343384,33.300781,23.867798,-61.273193,8.721924,21.066284,-16.915894
5.386353,14.834595,2.270508,18.47229,9.225464,34.518433,31.079102,23.867798,-63.806152,8.721924,19.613647,-16.915894
5.386353,14.834595,2.270508,18.47229,5.963135,34.518433,31.079102,23.867798,-63.806152,27.664185,19.613647,-16.915894
5.386353,14.834595,2.270508,15.966797,5.963135,34.518433,31.079102,22.506714,-63.806152,27.664185,19.613647,-20.428467
3.622437,12.002563,16.311646,15.966797,5.963135,32.357788,29.510498,22.506714,-63.040161,27.664185,19.613647,-20.428467
3.622437,12.002563,16.311646,15.966797,2.459717,32.357788,29.510498,22.506714,-63.040161,41.96167,17.895508,-20.428467
3.622437,12.002563,16.311646,13.278198,2.459717,32.357788,29.510498,20.892334,-63.040161,41.96167,17.895508,-23.626709
3.271484,8.825684,26.516724,13.278198,2.459717,30.050659,29.510498,20.892334,-57.30896,41.96167,17.895508,-23.626709
3.271484,8.825684,26.516724,13.278198,-1.18103,30.050659,28.659058,20.892334,-57.30896,51.303101,15.835571,-23.626709
3.271484,8.825684,26.516724,13.278198,-1.18103,30.050659,28.659058,18.887329,-57.30896,51.303101,15.835571,-26.477051
3.887939,5.407715,32.772827,10.43396,-1.18103,27.954102,28.659058,18.887329,-57.30896,51.303101,15.835571,-26.477051
3.887939,5.407715,32.772827,10.43396,-1.18103,27.954102,28.509521,18.887329,-45.999146,56.604004,13.43689,-26.477051
3.887939,5.407715,32.772827,10.43396,-4.751587,27.954102,28.509521,16.619873,-45.999146,56.604004,13.43689,-26.477051
4.846191,1.873779,32.772827,7.522583,-4.751587,27.954102,28.509521,16.619873,-45.999146,56.604004,13.43689,-29.269409
4.846191,1.873779,36.114502,7.522583,-4.751587,26.38855,28.610229,16.619873,-30.435181,56.604004,10.638428,-29.269409
4.846191,1.873779,36.114502,7.522583,-8.178711,26.38855,28.610229,14.096069,-30.435181,59.197998,10.638428,-29.269409
4.846191,1.873779,36.114502,4.525757,-8.178711,26.38855,28.610229,14.096069,-30.435181,59.197998,10.638428,-32.302856
5.419922,-1.553345,37.89978,4.525757,-8.178711,25.57373,28.659058,14.096069,-13.122559,59.197998,7.592773,-32.302856
5.419922,-1.553345,37.89978,4.525757,-11.538696,25.57373,28.659058,14.096069,-13.122559,60.299683,7.592773,-32.302856
5.419922,-1.553345,37.89978,1.473999,-11.538696,25.57373,28.659058,11.526489,-13.122559,60.299683,7.592773,-35.726929
5.151367,-4.800415,39.23645,1.473999,-11.538696,25.415039,28.302002,11.526489,2.780151,60.299683,7.592773,-35.726929
5.151367,-4.800415,39.23645,1.473999,-15.097046,25.415039,28.302002,11.526489,2.780151,60.571289,4.400635,-35.726929
5.151367,-4.800415,39.23645,-1.63269,-15.097046,25.415039,28.302002,8.886719,2.780151,60.571289,4.400635,-39.266968
3.924561,-7.910156,40.591431,-1.63269,-15.097046,25.65918,28.302002,8.886719,14.987183,60.571289,4.400635,-39.266968
3.924561,-7.910156,40.591431,-1.63269,-18.997192,25.65918,27.557373,8.886719,14.987183,60.275269,1.287842,-39.266968
3.924561,-7.910156,40.591431,-1.63269,-18.997192,25.65918,27.557373,6.240845,14.987183,60.275269,1.287842,-42.446899
2.01416,-11.077881,41.906738,-4.708862,-18.997192,25.891113,27.557373,6.240845,14.987183,60.275269,1.287842,-42.446899
2.01416,-11.077881,41.906738,-4.708862,-18.997192,25.891113,26.446533,6.240845,22.491455,59.436035,-1.776123,-42.446899
2.01416,-11.077881,41.906738,-4.708862,-23.223877,25.891113,26.446533,3.466797,22.491455,59.436035,-1.776123,-42.446899
-0.228882,-14.434814,41.906738,-7.733154,-23.223877,25.891113,26.446533,3.466797,22.491455,59.436035,-1.776123,-44.903564
-0.228882,-14.434814,42.840576,-7.733154,-23.223877,25.860596,25.210571,3.466797,25.964355,59.436035,-4.794312,-44.903564
-0.228882,-14.434814,42.840576,-7.733154,-27.462769,25.860596,25.210571,0.643921,25.964355,58.108521,-4.794312,-44.903564
-0.228882,-14.434814,42.840576,-10.675049,-27.462769,25.860596,25.210571,0.643921,25.964355,58.108521,-4.794312,-46.841431
-2.511597,-18.005371,43.1427,-10.675049,-27.462769,25.448608,23.83728,0.643921,26.824951,58.108521,-7.943726,-46.841431
-2.511597,-18.005371,43.1427,-10.675049,-31.393433,25.448608,23.83728,0.643921,26.824951,56.35376,-7.943726,-46.841431
-2.511597,-18.005371,43.1427,-13.674927,-31.393433,25.448608,23.83728,-2.236938,26.824951,56.35376,-7.943726,-48.950195
-4.898071,-21.530151,42.669678,-13.674927,-31.393433,24.740601,22.387695,-2.236938,26.782227,56.35376,-7.943726,-48.950195
-4.898071,-21.530151,42.669678,-13.674927,-34.854126,24.740601,22.387695,-2.236938,26.782227,54.244995,-11.224365,-48.950195
-4.898071,-21.530151,42.669678,-16.815186,-34.854126,24.740601,22.387695,-4.992676,26.782227,54.244995,-11.224365,-52.056885
-7.565308,-24.740601,41.452026,-16.815186,-34.854126,23.840332,22.387695,-4.992676,26.748657,54.244995,-11.224365,-52.056885
-7.565308,-24.740601,41.452026,-16.815186,-38.052368,23.840332,20.629883,-4.992676,26.748657,51.708984,-14.611816,-52.056885
-7.565308,-24.740601,41.452026,-16.815186,-38.052368,23.840332,20.629883,-7.681274,26.748657,51.708984,-14.611816,-56.271362
-10.736084,-27.450562,39.532471,-20.178223,-38.052368,22.814941,20.629883,-7.681274,26.748657,51.708984,-14.611816,-56.271362
-10.736084,-27.450562,39.532471,-20.178223,-38.052368,22.814941,18.554688,-7.681274,27.072144,48.693848,-17.913818,-56.271362
-10.736084,-27.450562,39.532471,-20.178223,-41.372681,22.814941,18.554688,-10.275269,27.072144,48.693848,-17.913818,-56.271362
-14.346313,-29.867554,39.532471,-23.660278,-41.372681,22.814941,18.554688,-10.275269,27.072144,48.693848,-17.913818,-60.543823
-14.346313,-29.867554,37.011719,-23.660278,-41.372681,21.585083,16.043091,-10.275269,27.325439,48.693848,-21.084595,-60.543823
-14.346313,-29.867554,37.011719,-23.660278,-45.126343,21.585083,16.043091,-12.985229,27.325439,45.187378,-21.084595,-60.543823
-14.346313,-29.867554,37.011719,-27.11792,-45.126343,21.585083,16.043091,-12.985229,27.325439,45.187378,-21.084595,-62.625122
-18.118286,-32.504272,34.042358,-27.11792,-45.126343,20.083618,13.287354,-12.985229,27.127075,45.187378,-24.118042,-62.625122
-18.118286,-32.504272,34.042358,-27.11792,-49.188232,20.083618,13.287354,-12.985229,27.127075,41.455078,-24.118042,-62.625122
-18.118286,-32.504272,34.042358,-30.389404,-49.188232,20.083618,13.287354,-15.829468,27.127075,41.455078,-24.118042,-59.93042
-21.661377,-36.791992,30.947876,-30.389404,-49.188232,18.231201,10.397339,-15.829468,26.089478,41.455078,-24.118042,-59.93042
-21.661377,-36.791992,30.947876,-30.389404,-53.07312,18.231201,10.397339,-15.829468,26.089478,37.936401,-27.261353,-59.93042
-21.661377,-36.791992,30.947876,-33.529663,-53.07312,18.231201,10.397339,-18.85376,26.089478,37.936401,-27.261353,-50.665283
-24.807739,-42.178345,28.128052,-33.529663,-53.07312,16.119385,10.397339,-18.85376,24.298096,37.936401,-27.261353,-50.665283
-24.807739,-42.178345,28.128052,-33.529663,-56.173706,16.119385,7.63855,-18.85376,24.298096,35.171509,-30.627441,-50.665283
-24.807739,-42.178345,28.128052,-33.529663,-56.173706,16.119385,7.63855,-21.847534,24.298096,35.171509,-30.627441,-34.872437
-27.636719,-47.091675,26.00708,-36.672974,-56.173706,13.870239,7.63855,-21.847534,24.298096,35.171509,-30.627441,-34.872437
-27.636719,-47.091675,26.00708,-36.672974,-56.173706,13.870239,4.995728,-21.847534,21.853638,33.462524,-34.280396,-34.872437
-27.636719,-47.091675,26.00708,-36.672974,-58.331299,13.870239,4.995728,-24.743652,21.853638,33.462524,-34.280396,-34.872437
-30.493164,-49.899292,26.00708,-40.063477,-58.331299,13.870239,4.995728,-24.743652,21.853638,33.462524,-34.280396,-14.56604
-30.493164,-49.899292,24.765015,-40.063477,-58.331299,11.639404,2.49939,-24.743652,19.158936,33.462524,-37.948608,-14.56604
-30.493164,-49.899292,24.765015,-40.063477,-60.028076,11.639404,2.49939,-27.432251,19.158936,32.836914,-37.948608,-14.56604
-30.493164,-49.899292,24.765015,-43.685913,-60.028076,11.639404,2.49939,-27.432251,19.158936,32.836914,-37.948608,6.835938
-33.584595,-48.748779,24.346924,-43.685913,-60.028076,9.451294,-0.106812,-27.432251,16.40625,32.836914,-41.366577,6.835938
-33.584595,-48.748779,24.346924,-43.685913,-62.200928,9.451294,-0.106812,-27.432251,16.40625,32.910156,-41.366577,6.835938
-33.584595,-48.748779,24.346924,-47.32666,-62.200928,9.451294,-0.106812,-30.142212,16.40625,32.910156,-41.366577,25.918579
-36.87439,-42.318726,24.398804,-47.32666,-62.200928,7.312012,-2.865601,-30.142212,14.013672,32.910156,-41.366577,25.918579
-36.87439,-42.318726,24.398804,-47.32666,-65.490723,7.312012,-2.865601,-30.142212,14.013672,33.200073,-44.317627,25.918579
-36.87439,-42.318726,24.398804,-50.579834,-65.490723,7.312012,-2.865601,-32.977295,14.013672,33.200073,-44.317627,40.34729
-40.005493,-30.728149,24.508667,-50.579834,-65.490723,5.056763,-2.865601,-32.977295,12.176514,33.200073,-44.317627,40.34729
-40.005493,-30.728149,24.508667,-50.579834,-69.488525,5.056763,-5.889893,-32.977295,12.176514,33.242798,-47.055054,40.34729
-40.005493,-30.728149,24.508667,-50.579834,-69.488525,5.056763,-5.889893,-36.09314,12.176514,33.242798,-47.055054,49.554443
-42.651367,-15.594482,24.316406,-53.22876,-69.488525,2.679443,-5.889893,-36.09314,12.176514,33.242798,-47.055054,49.554443
-42.651367,-15.594482,24.316406,-53.22876,-69.488525,2.679443,-8.969116,-36.09314,11.190796,32.836914,-50.003052,49.554443
-42.651367,-15.594482,24.316406,-53.22876,-72.216797,2.679443,-8.969116,-39.248657,11.190796,32.836914,-50.003052,54.428101
-44.793701,0.39978,24.316406,-55.426025,-72.216797,2.679443,-8.969116,-39.248657,11.190796,32.836914,-50.003052,54.428101
-44.793701,0.39978,23.703003,-55.426025,-72.216797,0.216675,-12.005615,-39.248657,10.998535,32.836914,-53.677368,54.428101
-44.793701,0.39978,23.703003,-55.426025,-71.224976,0.216675,-12.005615,-42.175293,10.998535,31.982422,-53.677368,54.428101
-44.793701,0.39978,23.703003,-57.778931,-71.224976,0.216675,-12.005615,-42.175293,10.998535,31.982422,-53.677368,56.582642
-46.929932,14.553833,22.70813,-57.778931,-71.224976,-2.160645,-14.816284,-42.175293,11.483765,31.982422,-57.940674,56.582642
-46.929932,14.553833,22.70813,-57.778931,-64.053345,-2.160645,-14.816284,-42.175293,11.483765,30.831909,-57.940674,56.582642
-46.929932,14.553833,22.70813,-60.855103,-64.053345,-2.160645,-14.816284,-44.534302,11.483765,30.831909,-57.940674,57.415771
-49.688721,25.021362,21.508789,-60.855103,-64.053345,-4.406738,-17.562866,-44.534302,12.167358,30.831909,-57.940674,57.415771
-49.688721,25.021362,21.508789,-60.855103,-49.798584,-4.406738,-17.562866,-44.534302,12.167358,29.449463,-61.929321,57.415771
-49.688721,25.021362,21.508789,-64.657593,-49.798584,-4.406738,-17.562866,-46.484375,12.167358,29.449463,-61.929321,57.733154
-53.381348,31.436157,20.181274,-64.657593,-49.798584,-6.524658,-17.562866,-46.484375,12.753296,29.449463,-61.929321,57.733154
-53.381348,31.436157,20.181274,-64.657593,-29.718018,-6.524658,-20.339966,-46.484375,12.753296,27.841187,-63.90686,57.733154
-53.381348,31.436157,20.181274,-64.657593,-29.718018,-6.524658,-20.339966,-48.410034,12.753296,27.841187,-63.90686,57.635498
-57.327271,34.573364,18.740845,-67.926025,-29.718018,-8.673096,-20.339966,-48.410034,12.753296,27.841187,-63.90686,57.635498
-57.327271,34.573364,18.740845,-67.926025,-29.718018,-8.673096,-23.425293,-48.410034,12.863159,25.872803,-62.030029,57.635498
-57.327271,34.573364,18.740845,-67.926025,-7.022095,-8.673096,-23.425293,-51.028442,12.863159,25.872803,-62.030029,56.982422
-59.866333,35.916138,18.740845,-69.003296,-7.022095,-8.673096,-23.425293,-51.028442,12.863159,25.872803,-62.030029,56.982422
-59.866333,35.916138,17.050171,-69.003296,-7.022095,-10.952759,-26.657104,-51.028442,12.554932,25.872803,-54.940796,56.982422
-59.866333,35.916138,17.050171,-69.003296,14.355469,-10.952759,-26.657104,-54.483032,12.554932,23.495483,-54.940796,56.982422
-59.866333,35.916138,17.050171,-66.040039,14.355469,-10.952759,-26.657104,-54.483032,12.554932,23.495483,-54.940796,55.62439
-58.786011,36.712646,15.005493,-66.040039,14.355469,-13.412476,-29.821777,-54.483032,11.816406,23.495483,-42.626953,55.62439
-58.786011,36.712646,15.005493,-66.040039,31.161499,-13.412476,-29.821777,-54.483032,11.816406,20.721436,-42.626953,55.62439
-58.786011,36.712646,15.005493,-57.565308,31.161499,-13.412476,-29.821777,-58.239746,11.816406,20.721436,-42.626953,53.616333
-52.349854,37.643433,12.561035,-57.565308,31.161499,-15.899658,-32.455444,-58.239746,10.864258,20.721436,-42.626953,53.616333
-52.349854,37.643433,12.561035,-57.565308,41.937256,-15.899658,-32.455444,-58.239746,10.864258,17.727661,-26.367188,53.616333
-52.349854,37.643433,12.561035,-43.508911,41.937256,-15.899658,-32.455444,-60.647583,10.864258,17.727661,-26.367188,51.043701
-40.124512,38.638306,9.844971,-43.508911,41.937256,-18.310547,-32.455444,-60.647583,9.634399,17.727661,-26.367188,51.043701
-40.124512,38.638306,9.844971,-43.508911,47.094727,-18.310547,-34.484863,-60.647583,9.634399,14.691162,-8.569336,51.043701
-40.124512,38.638306,9.844971,-43.508911,47.094727,-18.310547,-34.484863,-59.692383,9.634399,14.691162,-8.569336,47.961426
-23.477173,39.260864,7.046509,-25.506592,47.094727,-20.556641,-34.484863,-59.692383,9.634399,14.691162,-8.569336,47.961426
-23.477173,39.260864,7.046509,-25.506592,47.094727,-20.556641,-36.11145,-59.692383,8.175659,11.746216,8.303833,47.961426
-23.477173,39.260864,7.046509,-25.506592,48.355103,-20.556641,-36.11145,-53.540039,8.175659,11.746216,8.303833,44.293213
-5.072021,38.986206,7.046509,-6.277466,48.355103,-20.556641,-36.11145,-53.540039,8.175659,11.746216,8.303833,44.293213
-5.072021,38.986206,4.40979,-6.277466,48.355103,-22.799683,-38.092041,-53.540039,6.335449,11.746216,22.296143,44.293213
-5.072021,38.986206,4.40979,-6.277466,47.619629,-22.799683,-38.092041,-41.690063,6.335449,8.847046,22.296143,44.293213
-5.072021,38.986206,4.40979,11.209106,47.619629,-22.799683,-38.092041,-41.690063,6.335449,8.847046,22.296143,40.093994
11.987305,37.588501,2.017212,11.209106,47.619629,-25.247192,-40.905762,-41.690063,4.251099,8.847046,32.635498,40.093994
11.987305,37.588501,2.017212,11.209106,46.224976,-25.247192,-40.905762,-41.690063,4.251099,5.9021,32.635498,40.093994
11.987305,37.588501,2.017212,24.87793,46.224976,-25.247192,-40.905762,-25.085449,4.251099,5.9021,32.635498,35.574341
25.396729,35.070801,-0.149536,24.87793,46.224976,-28.070068,-44.60144,-25.085449,1.922607,5.9021,32.635498,35.574341
25.396729,35.070801,-0.149536,24.87793,44.58313,-28.070068,-44.60144,-25.085449,1.922607,2.767944,39.492798,35.574341
25.396729,35.070801,-0.149536,33.99353,44.58313,-28.070068,-44.60144,-6.195068,1.922607,2.767944,39.492798,31.259155
34.216309,31.744385,-2.27356,33.99353,44.58313,-31.152344,-44.60144,-6.195068,-0.411987,2.767944,39.492798,31.259155
34.216309,31.744385,-2.27356,33.99353,42.520142,-31.152344,-48.010254,-6.195068,-0.411987,-0.534058,43.756104,31.259155
34.216309,31.744385,-2.27356,33.99353,42.520142,-31.152344,-48.010254,12.173462,-0.411987,-0.534058,43.756104,27.706909
39.022827,27.96936,-4.501343,39.178467,42.520142,-34.20105,-48.010254,12.173462,-0.411987,-0.534058,43.756104,27.706909
39.022827,27.96936,-4.501343,39.178467,42.520142,-34.20105,-49.295044,12.173462,-2.804565,-3.903198,46.292114,27.706909
39.022827,27.96936,-4.501343,39.178467,39.691162,-34.20105,-49.295044,27.49939,-2.804565,-3.903198,46.292114,25.289917
41.2323,24.203491,-4.501343,41.757202,39.691162,-34.20105,-49.295044,27.49939,-2.804565,-3.903198,46.292114,25.289917
41.2323,24.203491,-6.900024,41.757202,39.691162,-36.856079,-46.298218,27.49939,-5.206299,-3.903198,47.842407,25.289917
41.2323,24.203491,-6.900024,41.757202,36.016846,-36.856079,-46.298218,38.595581,-5.206299,-7.165527,47.842407,25.289917
41.2323,24.203491,-6.900024,43.121338,36.016846,-36.856079,-46.298218,38.595581,-5.206299,-7.165527,47.842407,23.950195
42.401123,20.849609,-9.368896,43.121338,36.016846,-39.126587,-37.860107,38.595581,-7.781982,-7.165527,48.654175,23.950195
42.401123,20.849609,-9.368896,43.121338,31.665039,-39.126587,-37.860107,38.595581,-7.781982,-10.26001,48.654175,23.950195
42.401123,20.849609,-9.368896,44.128418,31.665039,-39.126587,-37.860107,45.431519,-7.781982,-10.26001,48.654175,23.278809
43.469238,18.289185,-11.984253,44.128418,31.665039,-41.372681,-24.209595,45.431519,-10.440063,-10.26001,48.654175,23.278809
43.469238,18.289185,-11.984253,44.128418,27.005005,-41.372681,-24.209595,45.431519,-10.440063,-13.244629,48.904419,23.278809
43.469238,18.289185,-11.984253,45.111084,27.005005,-41.372681,-24.209595,49.029541,-10.440063,-13.244629,48.904419,22.680664
44.677734,16.671753,-14.440918,45.111084,27.005005,-44.241333,-24.209595,49.029541,-13.174438,-13.244629,48.904419,22.680664
44.677734,16.671753,-14.440918,45.111084,22.351074,-44.241333,-7.373047,49.029541,-13.174438,-16.33606,48.571777,22.680664
44.677734,16.671753,-14.440918,45.111084,22.351074,-44.241333,-7.373047,50.521851,-13.174438,-16.33606,48.571777,21.780396
45.626831,15.960693,-16.821289,45.9198,22.351074,-48.062134,-7.373047,50.521851,-13.174438,-16.33606,48.571777,21.780396
45.626831,15.960693,-16.821289,45.9198,22.351074,-48.062134,9.848022,50.521851,-15.72876,-19.650269,47.77832,21.780396
45.626831,15.960693,-16.821289,45.9198,17.990112,-48.062134,9.848022,50.946045,-15.72876,-19.650269,47.77832,20.443726
45.800781,15.74707,-16.821289,46.380615,17.990112,-48.062134,9.848022,50.946045,-15.72876,-19.650269,47.77832,20.443726
45.800781,15.74707,-19.345093,46.380615,17.990112,-52.380371,24.575806,50.946045,-18.164063,-19.650269,46.542358,20.443726
45.800781,15.74707,-19.345093,46.380615,14.16626,-52.380371,24.575806,50.692749,-18.164063,-23.217773,46.542358,20.443726
45.800781,15.551758,-19.345093,46.334839,14.16626,-52.380371,24.575806,50.692749,-18.164063,-23.217773,46.542358,18.85376
44.775391,15.551758,-22.290039,46.334839,14.16626,-55.682373,35.244751,50.692749,-20.477295,-23.217773,44.927979,18.85376
44.775391,15.551758,-22.290039,46.334839,11.209106,-55.682373,35.244751,50.692749,-20.477295,-26.809692,44.927979,18.85376
44.775391,15.551758,-22.290039,45.779419,11.209106,-55.682373,35.244751,49.990845,-20.477295,-26.809692,44.927979,17.169189
42.480469,14.865112,-25.671387,45.779419,11.209106,-55.853271,41.61377,49.990845,-22.970581,-26.809692,44.927979,17.169189
42.480469,14.865112,-25.671387,45.779419,9.371948,-55.853271,41.61377,49.990845,-22.970581,-30.194092,42.84668,17.169189
42.480469,14.865112,-25.671387,44.714355,9.371948,-55.853271,41.61377,48.760986,-22.970581,-30.194092,42.84668,15.463257
39.086914,13.470459,-29.238892,44.714355,9.371948,-50.891113,41.61377,48.760986,-25.683594,-30.194092,42.84668,15.463257
39.086914,13.470459,-29.238892,44.714355,8.779907,-50.891113,44.833374,48.760986,-25.683594,-33.221436,40.344238,15.463257
39.086914,13.470459,-29.238892,44.714355,8.779907,-50.891113,44.833374,47.131348,-25.683594,-33.221436,40.344238,13.595581
34.991455,11.434937,-32.519531,43.191528,8.779907,-40.023804,44.833374,47.131348,-25.683594,-33.221436,40.344238,13.595581
34.991455,11.434937,-32.519531,43.191528,8.779907,-40.023804,46.350098,47.131348,-28.616333,-36.013794,37.457275,13.595581
34.991455,11.434937,-32.519531,43.191528,9.164429,-40.023804,46.350098,45.120239,-28.616333,-36.013794,37.457275,11.425781
30.612183,9.069824,-32.519531,41.2323,9.164429,-40.023804,46.350098,45.120239,-28.616333,-36.013794,37.457275,11.425781
30.612183,9.069824,-35.244751,41.2323,9.164429,-24.11499,47.473145,45.120239,-31.40564,-36.013794,34.521484,11.425781
30.612183,9.069824,-35.244751,41.2323,10.012817,-24.11499,47.473145,42.871094,-31.40564,-38.812256,34.521484,11.425781
30.612183,6.622314,-35.244751,39.044189,10.012817,-24.11499,47.473145,42.871094,-31.40564,-38.812256,34.521484,8.883667
26.464844,6.622314,-37.521362,39.044189,10.012817,-5.633545,48.626709,42.871094,-33.880615,-38.812256,31.842041,8.883667
26.464844,6.622314,-37.521362,39.044189,10.647583,-5.633545,48.626709,42.871094,-33.880615,-41.845703,31.842041,8.883667
26.464844,6.622314,-37.521362,36.901855,10.647583,-5.633545,48.626709,40.261841,-33.880615,-41.845703,31.842041,6.121826
22.955322,4.226685,-39.981079,36.901855,10.647583,12.277222,49.798584,40.261841,-35.949707,-41.845703,31.842041,6.121826
22.955322,4.226685,-39.981079,36.901855,10.592651,12.277222,49.798584,40.261841,-35.949707,-45.037842,29.803467,6.121826
22.955322,4.226685,-39.981079,35.202026,10.592651,12.277222,49.798584,37.307739,-35.949707,-45.037842,29.803467,3.295898
20.437622,1.696777,-43.255615,35.202026,10.592651,26.861572,49.798584,37.307739,-38.116455,-45.037842,29.803467,3.295898
20.437622,1.696777,-43.255615,35.202026,9.667969,26.861572,50.506592,37.307739,-38.116455,-48.080444,28.497314,3.295898
20.437622,1.696777,-43.255615,35.202026,9.667969,26.861572,50.506592,33.911133,-38.116455,-48.080444,28.497314,0.521851
18.981934,-1.174927,-47.494507,34.179688,9.667969,36.685181,50.506592,33.911133,-38.116455,-48.080444,28.497314,0.521851
18.981934,-1.174927,-47.494507,34.179688,9.667969,36.685181,50.582886,33.911133,-40.795898,-50.561523,27.886963,0.521851
18.981934,-1.174927,-47.494507,34.179688,8.056641,36.685181,50.582886,30.349731,-40.795898,-50.561523,27.886963,-2.297974
18.426514,-4.562378,-47.494507,33.862305,8.056641,36.685181,50.582886,30.349731,-40.795898,-50.561523,27.886963,-2.297974
18.426514,-4.562378,-51.812744,33.862305,8.056641,41.809082,49.920654,30.349731,-44.277954,-50.561523,27.630615,-2.297974
18.426514,-4.562378,-51.812744,33.862305,6.027222,41.809082,49.920654,26.916504,-44.277954,-52.416992,27.630615,-2.297974
18.426514,-8.358765,-51.812744,33.966064,6.027222,41.809082,49.920654,26.916504,-44.277954,-52.416992,27.630615,-5.325317
18.310547,-8.358765,-54.376221,33.966064,6.027222,43.490601,48.751831,26.916504,-47.891235,-52.416992,27.453613,-5.325317
18.310547,-8.358765,-54.376221,33.966064,3.829956,43.490601,48.751831,26.916504,-47.891235,-54.013062,27.453613,-5.325317
18.310547,-8.358765,-54.376221,34.09729,3.829956,43.490601,48.751831,24.111938,-47.891235,-54.013062,27.453613,-8.660889
18.121338,-12.29248,-52.96936,34.09729,3.829956,43.289185,47.091675,24.111938,-50.289917,-54.013062,27.453613,-8.660889
18.121338,-12.29248,-52.96936,34.09729,1.483154,43.289185,47.091675,24.111938,-50.289917,-56.07605,27.032471,-8.660889
18.121338,-12.29248,-52.96936,33.856201,1.483154,43.289185,47.091675,22.161865,-50.289917,-56.07605,27.032471,-12.158203
17.376709,-16.043091,-46.084595,33.856201,1.483154,42.507935,47.091675,22.161865,-49.551392,-56.07605,27.032471,-12.158203
17.376709,-16.043091,-46.084595,33.856201,-1.037598,42.507935,45.001221,22.161865,-49.551392,-59.069824,26.318359,-12.158203
17.376709,-16.043091,-46.084595,33.856201,-1.037598,42.507935,45.001221,21.170044,-49.551392,-59.069824,26.318359,-15.548706
15.933228,-19.519043,-33.648682,33.129883,-1.037598,41.732788,45.001221,21.170044,-49.551392,-59.069824,26.318359,-15.548706
15.933228,-19.519043,-33.648682,33.129883,-1.037598,41.732788,42.327881,21.170044,-44.342041,-62.680054,25.280762,-15.548706
15.933228,-19.519043,-33.648682,33.129883,-3.796387,41.732788,42.327881,20.806885,-44.342041,-62.680054,25.280762,-18.600464
13.858032,-22.808838,-33.648682,31.945801,-3.796387,41.732788,42.327881,20.806885,-44.342041,-62.680054,25.280762,-18.600464
13.858032,-22.808838,-17.407227,31.945801,-3.796387,41.040039,39.233398,20.806885,-34.307861,-62.680054,24.047852,-18.600464
13.858032,-22.808838,-17.407227,31.945801,-6.710815,41.040039,39.233398,20.758057,-34.307861,-65.432739,24.047852,-18.600464
